Time	Lead II
0	0
0.01	0
0.02	0
0.03	0
0.04	0
0.05	0
0.06	0
0.07	0
0.08	0
0.09	0
0.1	0
0.11	0
0.12	0
0.13	0
0.14	0
0.15	0
0.16	0
0.17	0
0.18	0
0.19	0
0.2	0
0.21	0
0.22	0
0.23	0
0.24	0
0.25	0
0.26	0
0.27	0
0.28	0
0.29	0
0.3	0
0.31	0
0.32	0
0.33	0
0.34	0
0.35	0
0.36	0
0.37	0
0.38	0
0.39	0
0.4	0
0.41	0
0.42	0
0.43	0
0.44	0
0.45	0
0.46	0
0.47	0
0.48	0
0.49	0
0.5	0
0.51	0
0.52	0
0.53	0
0.54	0
0.55	0
0.56	0
0.57	0
0.58	0
0.59	0
0.6	0
0.61	0
0.62	0
0.63	0
0.64	0
0.65	0
0.66	0
0.67	0
0.68	0
0.69	0
0.7	0
0.71	0
0.72	0
0.73	0
0.74	0
0.75	0
0.76	0
0.77	0
0.78	0
0.79	0
0.8	0
0.81	0
0.82	0
0.83	0
0.84	0
0.85	0
0.86	0
0.87	0
0.88	0
0.89	0
0.9	0
0.91	0
0.92	0
0.93	0
0.94	0
0.95	0
0.96	0
0.97	0
0.98	0
0.99	0
1	0
1.01	0
1.02	0
1.03	0
1.04	0
1.05	0
1.06	0
1.07	0
1.08	0
1.09	0
1.1	0
1.11	0
1.12	0
1.13	0
1.14	0
1.15	0
1.16	0
1.17	0
1.18	0
1.19	0
1.2	0
1.21	0
1.22	0
1.23	0
1.24	0
1.25	0
1.26	0
1.27	0
1.28	0
1.29	0
1.3	0
1.31	0
1.32	0
1.33	0
1.34	0
1.35	0
1.36	0
1.37	0
1.38	0
1.39	0
1.4	0
1.41	0
1.42	0
1.43	0
1.44	0
1.45	0
1.46	0
1.47	0
1.48	0
1.49	0
1.5	0
1.51	0
1.52	0
1.53	0
1.54	0
1.55	0
1.56	0
1.57	0
1.58	0
1.59	0
1.6	0
1.61	0
1.62	0
1.63	0
1.64	0
1.65	0
1.66	0
1.67	0
1.68	0
1.69	0
1.7	0
1.71	0
1.72	0
1.73	0
1.74	0
1.75	0
1.76	0
1.77	0
1.78	0
1.79	0
1.8	0
1.81	0
1.82	0
1.83	0
1.84	0
1.85	0
1.86	0
1.87	0
1.88	0
1.89	0
1.9	0
1.91	0
1.92	0
1.93	0
1.94	0
1.95	0
1.96	0
1.97	0
1.98	0
1.99	0
2	0.00242111
2.01	0.00167111
2.02	0.00700766
2.03	0.0178353
2.04	0.00625956
2.05	-0.0748547
2.06	-0.203522
2.07	-0.328051
2.08	-0.40288
2.09	-0.423801
2.1	-0.431975
2.11	-0.431165
2.12	-0.435829
2.13	-0.435232
2.14	-0.420623
2.15	-0.312429
2.16	0.0289229
2.17	0.339973
2.18	0.230485
2.19	-0.145298
2.2	-0.409335
2.21	-0.464307
2.22	-0.447156
2.23	-0.431222
2.24	-0.419247
2.25	-0.422975
2.26	-0.405478
2.27	-0.388927
2.28	-0.34827
2.29	-0.287789
2.3	-0.238667
2.31	-0.184192
2.32	-0.15093
2.33	-0.106295
2.34	-0.030689
2.35	0.0327828
2.36	0.103065
2.37	0.172606
2.38	0.235509
2.39	0.273404
2.4	0.261796
2.41	0.229486
2.42	0.163493
2.43	0.0904811
2.44	0.011952
2.45	-0.0782968
2.46	-0.127582
2.47	-0.168396
2.48	-0.177363
2.49	-0.157761
2.5	-0.155211
2.51	-0.137937
2.52	-0.130289
2.53	-0.122306
2.54	-0.118217
2.55	-0.132735
2.56	-0.114335
2.57	-0.106892
2.58	-0.103527
2.59	-0.0911457
2.6	-0.0933822
2.61	-0.0840351
2.62	-0.0845916
2.63	-0.0864657
2.64	-0.0847169
2.65	-0.093147
2.66	-0.0879575
2.67	-0.0974908
2.68	-0.104938
2.69	-0.0965752
2.7	-0.096358
2.71	-0.0761814
2.72	-0.0646807
2.73	-0.0500541
2.74	-0.034288
2.75	-0.0410533
2.76	-0.049584
2.77	-0.0929744
2.78	-0.136224
2.79	-0.155075
2.8	-0.169718
2.81	-0.165676
2.82	-0.173579
2.83	-0.186277
2.84	-0.157546
2.85	0.0437236
2.86	0.447821
2.87	0.627353
2.88	0.369251
2.89	0.0346993
2.9	-0.128144
2.91	-0.146576
2.92	-0.153179
2.93	-0.153925
2.94	-0.145972
2.95	-0.148346
2.96	-0.128073
2.97	-0.120903
2.98	-0.108933
2.99	-0.08152
3	-0.0642524
3.01	-0.0346624
3.02	-0.0114269
3.03	0.0286053
3.04	0.0808996
3.05	0.122081
3.06	0.181696
3.07	0.224796
3.08	0.26025
3.09	0.279204
3.1	0.263152
3.11	0.237557
3.12	0.169506
3.13	0.0894064
3.14	0.0171187
3.15	-0.0555833
3.16	-0.0928422
3.17	-0.118279
3.18	-0.12591
3.19	-0.119825
3.2	-0.125418
3.21	-0.124461
3.22	-0.134723
3.23	-0.130989
3.24	-0.115657
3.25	-0.116574
3.26	-0.104756
3.27	-0.106532
3.28	-0.106806
3.29	-0.099865
3.3	-0.10634
3.31	-0.101333
3.32	-0.107755
3.33	-0.109226
3.34	-0.117065
3.35	-0.1416
3.36	-0.130213
3.37	-0.118055
3.38	-0.118912
3.39	-0.10986
3.4	-0.11532
3.41	-0.105927
3.42	-0.0976739
3.43	-0.0776113
3.44	-0.0474426
3.45	-0.0459389
3.46	-0.0302835
3.47	-0.0306018
3.48	-0.0569225
3.49	-0.0918096
3.5	-0.135468
3.51	-0.136471
3.52	-0.134565
3.53	-0.139776
3.54	-0.151329
3.55	-0.164938
3.56	-0.0219417
3.57	0.35245
3.58	0.663995
3.59	0.534709
3.6	0.168112
3.61	-0.0417674
3.62	-0.0980422
3.63	-0.103873
3.64	-0.0981
3.65	-0.10354
3.66	-0.0903349
3.67	-0.084797
3.68	-0.0758735
3.69	-0.0534931
3.7	-0.0425509
3.71	-0.0197326
3.72	-0.00481147
3.73	0.013607
3.74	0.0510911
3.75	0.083206
3.76	0.144659
3.77	0.201812
3.78	0.243588
3.79	0.282635
3.8	0.289986
3.81	0.296226
3.82	0.268132
3.83	0.210715
3.84	0.149333
3.85	0.0641255
3.86	0.00671906
3.87	-0.0423369
3.88	-0.0817482
3.89	-0.0918827
3.9	-0.108034
3.91	-0.106706
3.92	-0.105942
3.93	-0.109795
3.94	-0.101916
3.95	-0.10567
3.96	-0.0993592
3.97	-0.103327
3.98	-0.101689
3.99	-0.0918536
4	-0.104124
4.01	-0.10015
4.02	-0.101734
4.03	-0.102376
4.04	-0.0968786
4.05	-0.114455
4.06	-0.112665
4.07	-0.117464
4.08	-0.124465
4.09	-0.119703
4.1	-0.132779
4.11	-0.127429
4.12	-0.118475
4.13	-0.10162
4.14	-0.0780552
4.15	-0.0703866
4.16	-0.0483546
4.17	-0.0432507
4.18	-0.0609177
4.19	-0.0925184
4.2	-0.141693
4.21	-0.154883
4.22	-0.155997
4.23	-0.15088
4.24	-0.145637
4.25	-0.176173
4.26	-0.149017
4.27	0.0696055
4.28	0.473074
4.29	0.656924
4.3	0.385746
4.31	0.0650371
4.32	-0.0759749
4.33	-0.0921732
4.34	-0.0719401
4.35	-0.069537
4.36	-0.0519423
4.37	-0.0473533
4.38	-0.0448434
4.39	-0.0294206
4.4	-0.0223735
4.41	0.00389321
4.42	0.0259712
4.43	0.0507459
4.44	0.084468
4.45	0.103916
4.46	0.150951
4.47	0.205108
4.48	0.255958
4.49	0.307194
4.5	0.331777
4.51	0.351473
4.52	0.335891
4.53	0.295698
4.54	0.241891
4.55	0.150077
4.56	0.0760302
4.57	0.0167633
4.58	-0.0258684
4.59	-0.0488611
4.6	-0.0768619
4.61	-0.0764711
4.62	-0.0798417
4.63	-0.086851
4.64	-0.0787837
4.65	-0.0825803
4.66	-0.074255
4.67	-0.0742638
4.68	-0.0790079
4.69	-0.0761264
4.7	-0.0916041
4.71	-0.0868755
4.72	-0.0846507
4.73	-0.0921019
4.74	-0.0913339
4.75	-0.105986
4.76	-0.101972
4.77	-0.104744
4.78	-0.112836
4.79	-0.109215
4.8	-0.118927
4.81	-0.0956659
4.82	-0.0726445
4.83	-0.0631236
4.84	-0.0491423
4.85	-0.04967
4.86	-0.047334
4.87	-0.0759933
4.88	-0.111077
4.89	-0.127745
4.9	-0.14723
4.91	-0.146482
4.92	-0.151104
4.93	-0.168157
4.94	-0.154151
4.95	0.0144431
4.96	0.418847
4.97	0.664265
4.98	0.450526
4.99	0.116047
5	-0.0725714
5.01	-0.111309
5.02	-0.112771
5.03	-0.110376
5.04	-0.0989718
5.05	-0.0977891
5.06	-0.0806931
5.07	-0.0688972
5.08	-0.0581373
5.09	-0.0384426
5.1	-0.0298146
5.11	0.00283908
5.12	0.0325622
5.13	0.0609432
5.14	0.113958
5.15	0.158146
5.16	0.218924
5.17	0.2629
5.18	0.2922
5.19	0.315218
5.2	0.295383
5.21	0.251178
5.22	0.178376
5.23	0.101734
5.24	0.0385891
5.25	-0.0296765
5.26	-0.0627932
5.27	-0.0815113
5.28	-0.101428
5.29	-0.112216
5.3	-0.124292
5.31	-0.113987
5.32	-0.11314
5.33	-0.114434
5.34	-0.104689
5.35	-0.112163
5.36	-0.101107
5.37	-0.0939403
5.38	-0.0971434
5.39	-0.0968533
5.4	-0.111246
5.41	-0.106825
5.42	-0.10848
5.43	-0.113589
5.44	-0.098343
5.45	-0.0881437
5.46	-0.0647079
5.47	-0.0512464
5.48	-0.0413105
5.49	-0.0292912
5.5	-0.0574878
5.51	-0.0914331
5.52	-0.124845
5.53	-0.138916
5.54	-0.137945
5.55	-0.148227
5.56	-0.144754
5.57	-0.166832
5.58	-0.14905
5.59	0.0687177
5.6	0.455851
5.61	0.644235
5.62	0.389014
5.63	0.0601574
5.64	-0.0808064
5.65	-0.11257
5.66	-0.0992082
5.67	-0.0934025
5.68	-0.09327
5.69	-0.0776525
5.7	-0.0731978
5.71	-0.0552239
5.72	-0.046272
5.73	-0.030773
5.74	0.00170355
5.75	0.0214791
5.76	0.0539745
5.77	0.083196
5.78	0.125266
5.79	0.186717
5.8	0.229409
5.81	0.281204
5.82	0.305288
5.83	0.300163
5.84	0.286275
5.85	0.235125
5.86	0.172237
5.87	0.0901266
5.88	0.0197277
5.89	-0.017803
5.9	-0.0601033
5.91	-0.0818833
5.92	-0.10299
5.93	-0.11569
5.94	-0.108476
5.95	-0.10905
5.96	-0.0913348
5.97	-0.0921239
5.98	-0.100921
5.99	-0.094399
6	-0.101489
6.01	-0.0892844
6.02	-0.0877024
6.03	-0.0936656
6.04	-0.092673
6.05	-0.105587
6.06	-0.101342
6.07	-0.102125
6.08	-0.09381
6.09	-0.0728205
6.1	-0.0717172
6.11	-0.0530515
6.12	-0.0411716
6.13	-0.0370169
6.14	-0.0417847
6.15	-0.0856421
6.16	-0.118563
6.17	-0.138646
6.18	-0.143228
6.19	-0.136247
6.2	-0.15153
6.21	-0.159742
6.22	-0.154545
6.23	-0.00282285
6.24	0.37218
6.25	0.628051
6.26	0.471274
6.27	0.125353
6.28	-0.0718014
6.29	-0.105553
6.3	-0.104228
6.31	-0.0909728
6.32	-0.087114
6.33	-0.0846641
6.34	-0.0730069
6.35	-0.0710655
6.36	-0.0436494
6.37	-0.02651
6.38	-0.0128711
6.39	0.0164885
6.4	0.0380716
6.41	0.0832033
6.42	0.124962
6.43	0.168448
6.44	0.228827
6.45	0.264219
6.46	0.298654
6.47	0.308356
6.48	0.295608
6.49	0.261634
6.5	0.189084
6.51	0.128925
6.52	0.0635483
6.53	0.0049362
6.54	-0.0295992
6.55	-0.0582316
6.56	-0.0679528
6.57	-0.0833578
6.58	-0.0863313
6.59	-0.0766291
6.6	-0.0842666
6.61	-0.0744888
6.62	-0.0699013
6.63	-0.068145
6.64	-0.0616659
6.65	-0.0721835
6.66	-0.0664894
6.67	-0.0680943
6.68	-0.0732356
6.69	-0.0688843
6.7	-0.0842926
6.71	-0.086782
6.72	-0.0883235
6.73	-0.0887705
6.74	-0.086174
6.75	-0.0969836
6.76	-0.0840652
6.77	-0.068491
6.78	-0.0531115
6.79	-0.0304053
6.8	-0.0237008
6.81	-0.0195153
6.82	-0.0478478
6.83	-0.0855299
6.84	-0.108325
6.85	-0.131814
6.86	-0.126806
6.87	-0.127089
6.88	-0.132713
6.89	-0.144737
6.9	-0.116647
6.91	0.137908
6.92	0.538949
6.93	0.66312
6.94	0.379206
6.95	0.055649
6.96	-0.0694485
6.97	-0.0964861
6.98	-0.0920999
6.99	-0.0729839
7	-0.0738596
7.01	-0.0589903
7.02	-0.0565921
7.03	-0.0544047
7.04	-0.0354215
7.05	-0.0273768
7.06	0.00275071
7.07	0.025485
7.08	0.0562052
7.09	0.107559
7.1	0.144595
7.11	0.197765
7.12	0.246641
7.13	0.289378
7.14	0.322722
7.15	0.314457
7.16	0.297716
7.17	0.247464
7.18	0.176078
7.19	0.111364
7.2	0.0404355
7.21	0.000143359
7.22	-0.0398646
7.23	-0.0744657
7.24	-0.0793606
7.25	-0.0910406
7.26	-0.0870257
7.27	-0.0889619
7.28	-0.0897542
7.29	-0.0754059
7.3	-0.0801527
7.31	-0.0725006
7.32	-0.0713654
7.33	-0.0722462
7.34	-0.065768
7.35	-0.0798975
7.36	-0.0814222
7.37	-0.084876
7.38	-0.0863788
7.39	-0.0798892
7.4	-0.0956065
7.41	-0.0973023
7.42	-0.10161
7.43	-0.108965
7.44	-0.105789
7.45	-0.116934
7.46	-0.113435
7.47	-0.115206
7.48	-0.120352
7.49	-0.117152
7.5	-0.122267
7.51	-0.103303
7.52	-0.0847735
7.53	-0.0712814
7.54	-0.0511384
7.55	-0.0481873
7.56	-0.0387055
7.57	-0.0613761
7.58	-0.0993619
7.59	-0.118025
7.6	-0.135948
7.61	-0.129942
7.62	-0.134877
7.63	-0.141395
7.64	-0.147256
7.65	-0.11708
7.66	0.141081
7.67	0.55625
7.68	0.695836
7.69	0.407228
7.7	0.0668665
7.71	-0.0647782
7.72	-0.0850818
7.73	-0.0830072
7.74	-0.0761424
7.75	-0.0778682
7.76	-0.0574258
7.77	-0.0477902
7.78	-0.0372487
7.79	-0.0156098
7.8	-0.0131739
7.81	0.00986184
7.82	0.0391593
7.83	0.0721196
7.84	0.11216
7.85	0.144886
7.86	0.204614
7.87	0.256004
7.88	0.299166
7.89	0.339283
7.9	0.348358
7.91	0.346347
7.92	0.298937
7.93	0.22885
7.94	0.160656
7.95	0.0823373
7.96	0.0317056
7.97	-0.012051
7.98	-0.0450628
7.99	-0.0508233
8	-0.0631151
8.01	-0.05746
8.02	-0.0604403
8.03	-0.0663574
8.04	-0.0644016
8.05	-0.074562
8.06	-0.0611733
8.07	-0.0554269
8.08	-0.0580677
8.09	-0.0509501
8.1	-0.0634033
8.11	-0.06288
8.12	-0.0717016
8.13	-0.081032
8.14	-0.0744502
8.15	-0.082382
8.16	-0.0802422
8.17	-0.0867565
8.18	-0.0903998
8.19	-0.0893916
8.2	-0.100871
8.21	-0.0918159
8.22	-0.0915175
8.23	-0.0962609
8.24	-0.0986815
8.25	-0.111907
8.26	-0.103441
8.27	-0.110989
8.28	-0.116165
8.29	-0.106381
8.3	-0.112718
8.31	-0.102944
8.32	-0.0961191
8.33	-0.0800168
8.34	-0.0545555
8.35	-0.0504911
8.36	-0.0331889
8.37	-0.0348738
8.38	-0.0545625
8.39	-0.0768256
8.4	-0.114988
8.41	-0.124942
8.42	-0.128851
8.43	-0.134331
8.44	-0.132978
8.45	-0.154525
8.46	-0.134834
8.47	0.0398206
8.48	0.442739
8.49	0.724483
8.5	0.505733
8.51	0.135169
8.52	-0.0626529
8.53	-0.0987303
8.54	-0.0834193
8.55	-0.0872904
8.56	-0.0738847
8.57	-0.0687021
8.58	-0.0651263
8.59	-0.0460787
8.6	-0.038416
8.61	-0.0186082
8.62	-0.00571601
8.63	0.0132188
8.64	0.0482529
8.65	0.077336
8.66	0.12767
8.67	0.171028
8.68	0.221997
8.69	0.279868
8.7	0.309619
8.71	0.337703
8.72	0.33218
8.73	0.310389
8.74	0.266366
8.75	0.175576
8.76	0.0946946
8.77	0.0258724
8.78	-0.0257475
8.79	-0.0467089
8.8	-0.0716773
8.81	-0.0782054
8.82	-0.0858634
8.83	-0.0964739
8.84	-0.0919129
8.85	-0.0947099
8.86	-0.0845269
8.87	-0.0827998
8.88	-0.0844459
8.89	-0.0716591
8.9	-0.0800393
8.91	-0.078486
8.92	-0.0819955
8.93	-0.0901196
8.94	-0.0790953
8.95	-0.0895905
8.96	-0.0859019
8.97	-0.0855711
8.98	-0.0960954
8.99	-0.0957879
9	-0.110292
9.01	-0.106621
9.02	-0.102421
9.03	-0.104948
9.04	-0.0993794
9.05	-0.108356
9.06	-0.101779
9.07	-0.106372
9.08	-0.114044
9.09	-0.104337
9.1	-0.106729
9.11	-0.0876602
9.12	-0.07126
9.13	-0.0617931
9.14	-0.0385993
9.15	-0.0351667
9.16	-0.0362662
9.17	-0.0589183
9.18	-0.0936811
9.19	-0.110107
9.2	-0.129172
9.21	-0.125048
9.22	-0.126766
9.23	-0.140279
9.24	-0.146288
9.25	-0.0968491
9.26	0.19273
9.27	0.580064
9.28	0.624462
9.29	0.302221
9.3	-0.003499
9.31	-0.0977852
9.32	-0.0929566
9.33	-0.0895726
9.34	-0.0818435
9.35	-0.0830844
9.36	-0.0652627
9.37	-0.0474288
9.38	-0.0430786
9.39	-0.0263429
9.4	-0.0194677
9.41	0.00510312
9.42	0.0350206
9.43	0.0613209
9.44	0.10853
9.45	0.146681
9.46	0.200566
9.47	0.25754
9.48	0.296814
9.49	0.32886
9.5	0.326422
9.51	0.313224
9.52	0.273302
9.53	0.207139
9.54	0.138184
9.55	0.052298
9.56	-0.00479224
9.57	-0.0434482
9.58	-0.0736083
9.59	-0.0810103
9.6	-0.0976982
9.61	-0.093723
9.62	-0.0919224
9.63	-0.100805
9.64	-0.0900284
9.65	-0.0905124
9.66	-0.0848169
9.67	-0.0829428
9.68	-0.0855858
9.69	-0.0748698
9.7	-0.0842186
9.71	-0.0799548
9.72	-0.0770037
9.73	-0.0810978
9.74	-0.0761531
9.75	-0.0932752
9.76	-0.0948354
9.77	-0.0960169
9.78	-0.102728
9.79	-0.0921318
9.8	-0.0976149
9.81	-0.0944468
9.82	-0.0939354
9.83	-0.0951008
9.84	-0.0832408
9.85	-0.0838597
9.86	-0.0636075
9.87	-0.041452
9.88	-0.0312993
9.89	-0.016064
9.9	-0.0290522
9.91	-0.0515428
9.92	-0.0842116
9.93	-0.108622
9.94	-0.10406
9.95	-0.115255
9.96	-0.11682
9.97	-0.12227
9.98	-0.138852
9.99	-0.0528272
10	0.246086
10.01	0.627051
10.02	0.63061
10.03	0.280814
10.04	0.00991143
10.05	-0.0883537
10.06	-0.0854461
10.07	-0.0745284
10.08	-0.0736486
10.09	-0.0570756
10.1	-0.0570987
10.11	-0.0398082
10.12	-0.0250583
10.13	-0.0175856
10.14	0.00533212
10.15	0.0182718
10.16	0.0485497
10.17	0.0817173
10.18	0.113787
10.19	0.170457
10.2	0.219439
10.21	0.27957
10.22	0.319634
10.23	0.332423
10.24	0.344445
10.25	0.314138
10.26	0.264524
10.27	0.188907
10.28	0.102603
10.29	0.0423109
10.3	-0.0175092
10.31	-0.0489395
10.32	-0.0766045
10.33	-0.0955119
10.34	-0.092159
10.35	-0.107814
10.36	-0.104815
10.37	-0.0972208
10.38	-0.096249
10.39	-0.0852304
10.4	-0.0904349
10.41	-0.0855238
10.42	-0.0877664
10.43	-0.0927586
10.44	-0.0796872
10.45	-0.0851266
10.46	-0.0787735
10.47	-0.0753867
10.48	-0.0836318
10.49	-0.0784439
10.5	-0.088989
10.51	-0.0897772
10.52	-0.0920085
10.53	-0.0967869
10.54	-0.0880843
10.55	-0.098453
10.56	-0.0971631
10.57	-0.0983249
10.58	-0.102846
10.59	-0.0949162
10.6	-0.106635
10.61	-0.105019
10.62	-0.100768
10.63	-0.0948658
10.64	-0.0725794
10.65	-0.0599535
10.66	-0.0370457
10.67	-0.0256676
10.68	-0.0279349
10.69	-0.0303718
10.7	-0.0635941
10.71	-0.0898158
10.72	-0.113181
10.73	-0.127686
10.74	-0.11865
10.75	-0.129462
10.76	-0.136136
10.77	-0.130063
10.78	0.0153558
10.79	0.402647
10.8	0.689776
10.81	0.52833
10.82	0.156186
10.83	-0.0594348
10.84	-0.0910126
10.85	-0.087271
10.86	-0.0777277
10.87	-0.0724282
10.88	-0.0707133
10.89	-0.0556983
10.9	-0.05743
10.91	-0.0408925
10.92	-0.0247066
10.93	-0.0124656
10.94	0.0194757
10.95	0.0399675
10.96	0.0779178
10.97	0.119622
10.98	0.163469
10.99	0.228978
11	0.275082
11.01	0.321786
11.02	0.342284
11.03	0.335722
11.04	0.316472
11.05	0.252073
11.06	0.186272
11.07	0.113874
11.08	0.0412178
11.09	-0.00367608
11.1	-0.0476482
11.11	-0.0632808
11.12	-0.0743321
11.13	-0.0795245
11.14	-0.0698123
11.15	-0.0855212
11.16	-0.088459
11.17	-0.0817662
11.18	-0.0789847
11.19	-0.0663043
11.2	-0.0716714
11.21	-0.0630804
11.22	-0.0616802
11.23	-0.0669462
11.24	-0.0551443
11.25	-0.0585279
11.26	-0.060883
11.27	-0.0726902
11.28	-0.0815743
11.29	-0.0732924
11.3	-0.078934
11.31	-0.0756121
11.32	-0.0754272
11.33	-0.0791101
11.34	-0.0743967
11.35	-0.089044
11.36	-0.0875017
11.37	-0.0866822
11.38	-0.0932152
11.39	-0.0889596
11.4	-0.0991416
11.41	-0.0914151
11.42	-0.0910426
11.43	-0.0971441
11.44	-0.0898891
11.45	-0.0974311
11.46	-0.0877016
11.47	-0.0710996
11.48	-0.0579905
11.49	-0.0369227
11.5	-0.0347775
11.51	-0.0184287
11.52	-0.017288
11.53	-0.0443285
11.54	-0.069599
11.55	-0.102794
11.56	-0.111958
11.57	-0.115733
11.58	-0.123948
11.59	-0.121771
11.6	-0.137541
11.61	-0.0487988
11.62	0.274034
11.63	0.654288
11.64	0.65352
11.65	0.282736
11.66	0.00172358
11.67	-0.0854442
11.68	-0.0929489
11.69	-0.0766978
11.7	-0.0759328
11.71	-0.0656979
11.72	-0.0558684
11.73	-0.0508841
11.74	-0.0334981
11.75	-0.0247449
11.76	-0.00341897
11.77	0.0151923
11.78	0.0362724
11.79	0.0768658
11.8	0.103373
11.81	0.149712
11.82	0.207401
11.83	0.260776
11.84	0.318861
11.85	0.344264
11.86	0.357341
11.87	0.343529
11.88	0.292962
11.89	0.233992
11.9	0.149598
11.91	0.0778111
11.92	0.0159581
11.93	-0.0299559
11.94	-0.0500891
11.95	-0.0765522
11.96	-0.0808617
11.97	-0.0842987
11.98	-0.0917591
11.99	-0.0842228
12	-0.090128
12.01	-0.0791615
12.02	-0.071618
12.03	-0.0732651
12.04	-0.0656187
12.05	-0.0727214
12.06	-0.0671411
12.07	-0.0696842
12.08	-0.0774623
12.09	-0.0717992
12.1	-0.0802489
12.11	-0.0778006
12.12	-0.076772
12.13	-0.0808543
12.14	-0.0762281
12.15	-0.0871202
12.16	-0.0855935
12.17	-0.0892809
12.18	-0.0992657
12.19	-0.0909421
12.2	-0.097447
12.21	-0.0940066
12.22	-0.0949832
12.23	-0.10064
12.24	-0.0933669
12.25	-0.101316
12.26	-0.0956169
12.27	-0.0950356
12.28	-0.103313
12.29	-0.0987348
12.3	-0.103304
12.31	-0.0907094
12.32	-0.0850272
12.33	-0.0785022
12.34	-0.053045
12.35	-0.0436896
12.36	-0.0222646
12.37	-0.0155856
12.38	-0.0376313
12.39	-0.0636522
12.4	-0.103128
12.41	-0.113914
12.42	-0.11782
12.43	-0.126598
12.44	-0.122102
12.45	-0.143712
12.46	-0.108228
12.47	0.12431
12.48	0.539764
12.49	0.726042
12.5	0.431613
12.51	0.0846655
12.52	-0.066628
12.53	-0.0914789
12.54	-0.074071
12.55	-0.0744148
12.56	-0.0623828
12.57	-0.0548999
12.58	-0.0564469
12.59	-0.0418543
12.6	-0.0340026
12.61	-0.00553583
12.62	0.0198786
12.63	0.0327032
12.64	0.0633733
12.65	0.0905472
12.66	0.141425
12.67	0.194768
12.68	0.244699
12.69	0.304255
12.7	0.338514
12.71	0.361562
12.72	0.355574
12.73	0.32041
12.74	0.274577
12.75	0.188888
12.76	0.110377
12.77	0.0434874
12.78	-0.00946422
12.79	-0.0360251
12.8	-0.0675009
12.81	-0.077123
12.82	-0.082101
12.83	-0.0861066
12.84	-0.0741472
12.85	-0.0804308
12.86	-0.0766103
12.87	-0.0748895
12.88	-0.0768452
12.89	-0.0668418
12.9	-0.0730823
12.91	-0.0669577
12.92	-0.0671
12.93	-0.075185
12.94	-0.0684843
12.95	-0.0778767
12.96	-0.077485
12.97	-0.0808727
12.98	-0.0857103
12.99	-0.0773243
13	-0.088157
13.01	-0.0904767
13.02	-0.0940561
13.03	-0.101208
13.04	-0.0975749
13.05	-0.107375
13.06	-0.0974395
13.07	-0.0937771
13.08	-0.0969722
13.09	-0.0912824
13.1	-0.104424
13.11	-0.102385
13.12	-0.0985709
13.13	-0.100944
13.14	-0.091912
13.15	-0.101769
13.16	-0.0996916
13.17	-0.0981131
13.18	-0.101774
13.19	-0.0823436
13.2	-0.0755582
13.21	-0.0548234
13.22	-0.0363854
13.23	-0.0293025
13.24	-0.0194921
13.25	-0.0428993
13.26	-0.0679235
13.27	-0.0969837
13.28	-0.118411
13.29	-0.11539
13.3	-0.120393
13.31	-0.118694
13.32	-0.135897
13.33	-0.101129
13.34	0.156519
13.35	0.54875
13.36	0.679771
13.37	0.38202
13.38	0.0486416
13.39	-0.0724939
13.4	-0.0896234
13.41	-0.0732049
13.42	-0.0642644
13.43	-0.0640357
13.44	-0.0512258
13.45	-0.052494
13.46	-0.0446996
13.47	-0.0241757
13.48	-0.0118564
13.49	0.0201461
13.5	0.0397469
13.51	0.073359
13.52	0.112399
13.53	0.14391
13.54	0.206105
13.55	0.257956
13.56	0.306095
13.57	0.346507
13.58	0.353296
13.59	0.353057
13.6	0.314363
13.61	0.256311
13.62	0.183447
13.63	0.102313
13.64	0.047957
13.65	-0.0137613
13.66	-0.052641
13.67	-0.0671501
13.68	-0.0832274
13.69	-0.0819009
13.7	-0.0926551
13.71	-0.093322
13.72	-0.0880771
13.73	-0.0888225
13.74	-0.0747447
13.75	-0.0809085
13.76	-0.0792989
13.77	-0.0737596
13.78	-0.0803152
13.79	-0.072743
13.8	-0.0770656
13.81	-0.0744373
13.82	-0.0723786
13.83	-0.0816875
13.84	-0.075515
13.85	-0.0823441
13.86	-0.0871459
13.87	-0.0896862
13.88	-0.0969173
13.89	-0.0855073
13.9	-0.0921785
13.91	-0.0919265
13.92	-0.0859003
13.93	-0.0947487
13.94	-0.0903148
13.95	-0.0998667
13.96	-0.10556
13.97	-0.0995776
13.98	-0.0992973
13.99	-0.0803098
14	-0.0722162
14.01	-0.0589892
14.02	-0.0406612
14.03	-0.0310438
14.04	-0.0166311
14.05	-0.0339063
14.06	-0.0547487
14.07	-0.0784523
14.08	-0.109911
14.09	-0.115604
14.1	-0.125166
14.11	-0.1234
14.12	-0.12759
14.13	-0.149154
14.14	-0.0522867
14.15	0.275764
14.16	0.645896
14.17	0.614766
14.18	0.245523
14.19	-0.0184055
14.2	-0.102811
14.21	-0.0970071
14.22	-0.0792582
14.23	-0.0809687
14.24	-0.0671057
14.25	-0.0652712
14.26	-0.0486286
14.27	-0.0350102
14.28	-0.0374824
14.29	-0.0136154
14.3	0.00532355
14.31	0.0313596
14.32	0.0630537
14.33	0.0982084
14.34	0.156092
14.35	0.203835
14.36	0.259805
14.37	0.309196
14.38	0.333179
14.39	0.352099
14.4	0.325648
14.41	0.276221
14.42	0.212256
14.43	0.125952
14.44	0.0593712
14.45	-0.00604644
14.46	-0.0485225
14.47	-0.0724988
14.48	-0.0939417
14.49	-0.0931937
14.5	-0.104266
14.51	-0.105147
14.52	-0.0971858
14.53	-0.0998836
14.54	-0.0858048
14.55	-0.0869496
14.56	-0.0834911
14.57	-0.0784578
14.58	-0.0864732
14.59	-0.0766973
14.6	-0.0806718
14.61	-0.0762977
14.62	-0.0684078
14.63	-0.0731593
14.64	-0.0647912
14.65	-0.079895
14.66	-0.0841818
14.67	-0.0820337
14.68	-0.0935483
14.69	-0.0838348
14.7	-0.0862272
14.71	-0.0861097
14.72	-0.0833478
14.73	-0.0909349
14.74	-0.0820758
14.75	-0.0918156
14.76	-0.0934517
14.77	-0.0896362
14.78	-0.0959205
14.79	-0.0843959
14.8	-0.0942309
14.81	-0.0962258
14.82	-0.0814035
14.83	-0.0733475
14.84	-0.0501492
14.85	-0.0409861
14.86	-0.0233501
14.87	-0.00853822
14.88	-0.027059
14.89	-0.0436472
14.9	-0.0774439
14.91	-0.0965185
14.92	-0.102803
14.93	-0.111784
14.94	-0.103752
14.95	-0.119501
14.96	-0.134397
14.97	-0.056709
14.98	0.23591
14.99	0.632569
15	0.652435
15.01	0.30418
15.02	0.0154125
15.03	-0.0842824
15.04	-0.0740674
15.05	-0.0704808
15.06	-0.0645635
15.07	-0.0569765
15.08	-0.0591363
15.09	-0.0440857
15.1	-0.0361644
15.11	-0.0175794
15.12	0.00388153
15.13	0.0156407
15.14	0.0430396
15.15	0.0642423
15.16	0.107709
15.17	0.160954
15.18	0.206352
15.19	0.269901
15.2	0.311244
15.21	0.343783
15.22	0.363553
15.23	0.347279
15.24	0.321452
15.25	0.249758
15.26	0.169662
15.27	0.0978028
15.28	0.0265934
15.29	-0.00726808
15.3	-0.0447945
15.31	-0.0674571
15.32	-0.0724511
15.33	-0.0880335
15.34	-0.0775033
15.35	-0.0793966
15.36	-0.0806074
15.37	-0.0680608
15.38	-0.0706741
15.39	-0.0653754
15.4	-0.070761
15.41	-0.0660496
15.42	-0.0594813
15.43	-0.0696225
15.44	-0.0588969
15.45	-0.0617025
15.46	-0.0676347
15.47	-0.0665516
15.48	-0.0757003
15.49	-0.0718687
15.5	-0.0844846
15.51	-0.0835771
15.52	-0.075269
15.53	-0.0869535
15.54	-0.0832231
15.55	-0.0900711
15.56	-0.0911362
15.57	-0.0931502
15.58	-0.107185
15.59	-0.0972391
15.6	-0.104017
15.61	-0.106389
15.62	-0.099095
15.63	-0.106245
15.64	-0.0971951
15.65	-0.100316
15.66	-0.0966145
15.67	-0.0942833
15.68	-0.109386
15.69	-0.10067
15.7	-0.09387
15.71	-0.0763684
15.72	-0.0532297
15.73	-0.0397823
15.74	-0.0207174
15.75	-0.0333377
15.76	-0.0525952
15.77	-0.0697657
15.78	-0.100139
15.79	-0.110184
15.8	-0.121931
15.81	-0.121322
15.82	-0.11966
15.83	-0.137048
15.84	-0.0667443
15.85	0.217034
15.86	0.635064
15.87	0.704389
15.88	0.348751
15.89	0.0475103
15.9	-0.0677476
15.91	-0.0804372
15.92	-0.0658612
15.93	-0.063996
15.94	-0.0486153
15.95	-0.0470381
15.96	-0.037936
15.97	-0.0238519
15.98	-0.0183564
15.99	0.00353355
16	0.0102503
16.01	0.0345108
16.02	0.0775785
16.03	0.107807
16.04	0.162898
16.05	0.208627
16.06	0.260193
16.07	0.316729
16.08	0.347691
16.09	0.371552
16.1	0.357062
16.11	0.325545
16.12	0.269735
16.13	0.178929
16.14	0.110321
16.15	0.0443566
16.16	-0.00742577
16.17	-0.040694
16.18	-0.0724
16.19	-0.0767742
16.2	-0.0851441
16.21	-0.0808733
16.22	-0.0711702
16.23	-0.0762334
16.24	-0.0643837
16.25	-0.0679903
16.26	-0.0692487
16.27	-0.0661177
16.28	-0.0736415
16.29	-0.0633502
16.3	-0.0651047
16.31	-0.0605222
16.32	-0.0563843
16.33	-0.0706388
16.34	-0.0658891
16.35	-0.0752746
16.36	-0.082225
16.37	-0.0795374
16.38	-0.0808086
16.39	-0.0694567
16.4	-0.0787935
16.41	-0.0889939
16.42	-0.0923008
16.43	-0.102588
16.44	-0.0958055
16.45	-0.0995849
16.46	-0.0974714
16.47	-0.0895078
16.48	-0.0992973
16.49	-0.088809
16.5	-0.0945413
16.51	-0.101818
16.52	-0.0996119
16.53	-0.104139
16.54	-0.0838064
16.55	-0.0720527
16.56	-0.0558322
16.57	-0.0367326
16.58	-0.0349139
16.59	-0.0223238
16.6	-0.0459189
16.61	-0.0810422
16.62	-0.103773
16.63	-0.130195
16.64	-0.122925
16.65	-0.122591
16.66	-0.127855
16.67	-0.138496
16.68	-0.0919469
16.69	0.195976
16.7	0.589972
16.71	0.660003
16.72	0.329149
16.73	0.00946566
16.74	-0.0871947
16.75	-0.0913947
16.76	-0.077937
16.77	-0.0652316
16.78	-0.0703206
16.79	-0.0549493
16.8	-0.0525047
16.81	-0.0451708
16.82	-0.0221698
16.83	-0.00985518
16.84	0.0169052
16.85	0.0288628
16.86	0.0552987
16.87	0.100273
16.88	0.140533
16.89	0.20258
16.9	0.252811
16.91	0.306516
16.92	0.347472
16.93	0.352477
16.94	0.349544
16.95	0.304654
16.96	0.241363
16.97	0.170001
16.98	0.0836703
16.99	0.020105
17	-0.034647
17.01	-0.0667143
17.02	-0.0856139
17.03	-0.106612
17.04	-0.099068
17.05	-0.105281
17.06	-0.105512
17.07	-0.0959449
17.08	-0.105923
17.09	-0.100874
17.1	-0.100939
17.11	-0.0942597
17.12	-0.0862909
17.13	-0.0937998
17.14	-0.0847689
17.15	-0.0936901
17.16	-0.0978375
17.17	-0.089813
17.18	-0.0921246
17.19	-0.0838191
17.2	-0.0958869
17.21	-0.101759
17.22	-0.0994861
17.23	-0.114128
17.24	-0.11027
17.25	-0.110612
17.26	-0.107602
17.27	-0.100308
17.28	-0.104841
17.29	-0.0894261
17.3	-0.0806971
17.31	-0.0713941
17.32	-0.0497784
17.33	-0.0384527
17.34	-0.023176
17.35	-0.0464485
17.36	-0.0817977
17.37	-0.101524
17.38	-0.122656
17.39	-0.121585
17.4	-0.130309
17.41	-0.137058
17.42	-0.141153
17.43	-0.125266
17.44	0.0745348
17.45	0.460408
17.46	0.683802
17.47	0.463568
17.48	0.100779
17.49	-0.0661784
17.5	-0.0965429
17.51	-0.086492
17.52	-0.0726935
17.53	-0.0746962
17.54	-0.0592563
17.55	-0.0505925
17.56	-0.0386911
17.57	-0.0242553
17.58	-0.0171257
17.59	0.0147414
17.6	0.0307213
17.61	0.0538493
17.62	0.096181
17.63	0.135586
17.64	0.193345
17.65	0.242266
17.66	0.298453
17.67	0.34788
17.68	0.358811
17.69	0.357571
17.7	0.313032
17.71	0.251808
17.72	0.181415
17.73	0.0943923
17.74	0.032478
17.75	-0.0310522
17.76	-0.0686276
17.77	-0.0789508
17.78	-0.0954705
17.79	-0.0946729
17.8	-0.105596
17.81	-0.104435
17.82	-0.0947262
17.83	-0.104347
17.84	-0.0966309
17.85	-0.0975855
17.86	-0.093097
17.87	-0.0835059
17.88	-0.0901837
17.89	-0.0839775
17.9	-0.0895308
17.91	-0.0889641
17.92	-0.0842959
17.93	-0.101302
17.94	-0.0978725
17.95	-0.0981519
17.96	-0.0969993
17.97	-0.0956207
17.98	-0.11144
17.99	-0.108093
18	-0.112221
18.01	-0.110246
18.02	-0.100216
18.03	-0.10796
18.04	-0.0990837
18.05	-0.0965308
18.06	-0.0883587
18.07	-0.0701284
18.08	-0.0653592
18.09	-0.0409574
18.1	-0.0271478
18.11	-0.0324888
18.12	-0.0530276
18.13	-0.0929597
18.14	-0.111194
18.15	-0.130232
18.16	-0.133932
18.17	-0.125426
18.18	-0.139756
18.19	-0.1335
18.2	-0.0251623
18.21	0.322393
18.22	0.673523
18.23	0.579221
18.24	0.215961
18.25	-0.0373439
18.26	-0.0960663
18.27	-0.0813861
18.28	-0.0802797
18.29	-0.06697
18.3	-0.0650767
18.31	-0.0571125
18.32	-0.0413819
18.33	-0.0397335
18.34	-0.0226649
18.35	-0.00963116
18.36	0.0178819
18.37	0.0532465
18.38	0.0756196
18.39	0.122731
18.4	0.168375
18.41	0.222116
18.42	0.279491
18.43	0.31487
18.44	0.353935
18.45	0.35686
18.46	0.330555
18.47	0.287736
18.48	0.210107
18.49	0.135565
18.5	0.0525928
18.51	-0.00584696
18.52	-0.0410795
18.53	-0.0750745
18.54	-0.0810604
18.55	-0.0928318
18.56	-0.0957284
18.57	-0.0899799
18.58	-0.0971638
18.59	-0.0888705
18.6	-0.0900063
18.61	-0.0859772
18.62	-0.079748
18.63	-0.0885333
18.64	-0.0771677
18.65	-0.0797572
18.66	-0.0834982
18.67	-0.0791824
18.68	-0.0828215
18.69	-0.0754522
18.7	-0.0881278
18.71	-0.0934708
18.72	-0.0902222
18.73	-0.100171
18.74	-0.0916087
18.75	-0.0937937
18.76	-0.0941848
18.77	-0.0904028
18.78	-0.102636
18.79	-0.0969584
18.8	-0.0980408
18.81	-0.0984153
18.82	-0.0941866
18.83	-0.103611
18.84	-0.0981902
18.85	-0.102228
18.86	-0.0939305
18.87	-0.0752247
18.88	-0.0708393
18.89	-0.0495053
18.9	-0.0355891
18.91	-0.0248109
18.92	-0.0224125
18.93	-0.0573907
18.94	-0.0857583
18.95	-0.114559
18.96	-0.124342
18.97	-0.119465
18.98	-0.123676
18.99	-0.121123
19	-0.139597
19.01	-0.0554825
19.02	0.269185
19.03	0.640447
19.04	0.636634
19.05	0.270869
19.06	-0.0120452
19.07	-0.0889471
19.08	-0.0941028
19.09	-0.0751863
19.1	-0.0737633
19.11	-0.0657255
19.12	-0.0510681
19.13	-0.0521145
19.14	-0.0380976
19.15	-0.0408259
19.16	-0.0375782
19.17	0.00197542
19.18	0.0316743
19.19	0.0750735
19.2	0.112806
19.21	0.154779
19.22	0.216152
19.23	0.268414
19.24	0.327333
19.25	0.354499
19.26	0.356619
19.27	0.345151
19.28	0.293037
19.29	0.235158
19.3	0.154427
19.31	0.077351
19.32	0.0248906
19.33	-0.0280175
19.34	-0.0504218
19.35	-0.0674106
19.36	-0.0779267
19.37	-0.0767146
19.38	-0.0900972
19.39	-0.0812592
19.4	-0.075517
19.41	-0.0787105
19.42	-0.0703697
19.43	-0.0727193
19.44	-0.0605964
19.45	-0.0631036
19.46	-0.0694121
19.47	-0.0629918
19.48	-0.0740192
19.49	-0.0672764
19.5	-0.0673618
19.51	-0.0715694
19.52	-0.0653686
19.53	-0.0786532
19.54	-0.0768741
19.55	-0.0797931
19.56	-0.083052
19.57	-0.0765071
19.58	-0.0907093
19.59	-0.0857504
19.6	-0.0846888
19.61	-0.0873863
19.62	-0.0820059
19.63	-0.091795
19.64	-0.0840959
19.65	-0.0876484
19.66	-0.0951343
19.67	-0.0913664
19.68	-0.0954353
19.69	-0.0860074
19.7	-0.0898723
19.71	-0.0980287
19.72	-0.0904479
19.73	-0.0909203
19.74	-0.0685275
19.75	-0.0507187
19.76	-0.0395771
19.77	-0.0185255
19.78	-0.0201897
19.79	-0.0203318
19.8	-0.0512185
19.81	-0.0941646
19.82	-0.107854
19.83	-0.119878
19.84	-0.112658
19.85	-0.114987
19.86	-0.127724
19.87	-0.118361
19.88	0.0132643
19.89	0.395057
19.9	0.706647
19.91	0.555097
19.92	0.188954
19.93	-0.0435318
19.94	-0.0923557
19.95	-0.0920412
19.96	-0.0878568
19.97	-0.0723822
19.98	-0.0713006
19.99	-0.0522259
20	-0.0414259
20.01	-0.0381422
20.02	-0.0221871
20.03	-0.0146259
20.04	0.0136078
20.05	0.0386988
20.06	0.0692394
20.07	0.116252
20.08	0.154407
20.09	0.218756
20.1	0.275923
20.11	0.316233
20.12	0.354886
20.13	0.357453
20.14	0.34681
20.15	0.302155
20.16	0.227361
20.17	0.156188
20.18	0.0752836
20.19	0.0183829
20.2	-0.0305152
20.21	-0.061476
20.22	-0.0675162
20.23	-0.0832143
20.24	-0.0794937
20.25	-0.0786618
20.26	-0.0832584
20.27	-0.0754853
20.28	-0.0778874
20.29	-0.0669753
20.3	-0.0672323
20.31	-0.0697953
20.32	-0.0559398
20.33	-0.0658486
20.34	-0.0616553
20.35	-0.0624316
20.36	-0.0686165
20.37	-0.0647585
20.38	-0.0783634
20.39	-0.0729156
20.4	-0.0768156
20.41	-0.0828106
20.42	-0.0725625
20.43	-0.081403
20.44	-0.0786528
20.45	-0.0850128
20.46	-0.089253
20.47	-0.0801527
20.48	-0.0936799
20.49	-0.0912132
20.5	-0.0922439
20.51	-0.0940027
20.52	-0.0829543
20.53	-0.0937924
20.54	-0.0898279
20.55	-0.0935733
20.56	-0.0984444
20.57	-0.0887518
20.58	-0.0961828
20.59	-0.0906285
20.6	-0.0928614
20.61	-0.0964359
20.62	-0.0749976
20.63	-0.0616501
20.64	-0.0428263
20.65	-0.0346107
20.66	-0.0259871
20.67	-0.0227905
20.68	-0.0580632
20.69	-0.0808065
20.7	-0.100797
20.71	-0.118921
20.72	-0.118321
20.73	-0.129058
20.74	-0.130735
20.75	-0.14108
20.76	-0.0570568
20.77	0.274724
20.78	0.652083
20.79	0.645746
20.8	0.283557
20.81	-0.00306836
20.82	-0.0816411
20.83	-0.0899945
20.84	-0.0771393
20.85	-0.07366
20.86	-0.0702902
20.87	-0.0524361
20.88	-0.0545607
20.89	-0.0374492
20.9	-0.0281177
20.91	-0.0178877
20.92	0.0135207
20.93	0.029087
20.94	0.0659028
20.95	0.107362
20.96	0.153187
20.97	0.21191
20.98	0.257487
20.99	0.314197
21	0.34884
21.01	0.360487
21.02	0.363667
21.03	0.320517
21.04	0.263849
21.05	0.186639
21.06	0.105212
21.07	0.0438801
21.08	-0.0172056
21.09	-0.0440399
21.1	-0.0594122
21.11	-0.0694613
21.12	-0.0692424
21.13	-0.0827003
21.14	-0.076973
21.15	-0.0762608
21.16	-0.0782437
21.17	-0.0679784
21.18	-0.0721318
21.19	-0.0647546
21.2	-0.0624161
21.21	-0.0657014
21.22	-0.0596337
21.23	-0.0690842
21.24	-0.0614894
21.25	-0.062583
21.26	-0.0685736
21.27	-0.0615959
21.28	-0.0755527
21.29	-0.0762505
21.3	-0.0803564
21.31	-0.0847099
21.32	-0.078803
21.33	-0.0906533
21.34	-0.0806193
21.35	-0.0765286
21.36	-0.0835805
21.37	-0.0824674
21.38	-0.0923019
21.39	-0.0851146
21.4	-0.0859581
21.41	-0.0929503
21.42	-0.0881779
21.43	-0.0950951
21.44	-0.0851991
21.45	-0.0838537
21.46	-0.088179
21.47	-0.0830751
21.48	-0.0945716
21.49	-0.0904892
21.5	-0.078375
21.51	-0.0608816
21.52	-0.034358
21.53	-0.0295785
21.54	-0.0159522
21.55	-0.0160824
21.56	-0.0439089
21.57	-0.0694501
21.58	-0.0974506
21.59	-0.103153
21.6	-0.11602
21.61	-0.119452
21.62	-0.110785
21.63	-0.135215
21.64	-0.0844863
21.65	0.178382
21.66	0.589582
21.67	0.70754
21.68	0.378226
21.69	0.0602096
21.7	-0.0627241
21.71	-0.0751285
21.72	-0.058616
21.73	-0.0642486
21.74	-0.0564463
21.75	-0.054964
21.76	-0.0508366
21.77	-0.028798
21.78	-0.0235687
21.79	-0.00315084
21.8	0.0138831
21.81	0.0319835
21.82	0.0680266
21.83	0.0943231
21.84	0.144647
21.85	0.196665
21.86	0.244468
21.87	0.305161
21.88	0.340428
21.89	0.371535
21.9	0.368736
21.91	0.333172
21.92	0.28113
21.93	0.194897
21.94	0.123307
21.95	0.0531772
21.96	-0.00320985
21.97	-0.0316986
21.98	-0.0640594
21.99	-0.0709406
22	-0.080093
22.01	-0.0833408
22.02	-0.0721364
22.03	-0.0821196
22.04	-0.0757399
22.05	-0.0719039
22.06	-0.0692238
22.07	-0.0569754
22.08	-0.0711707
22.09	-0.0683951
22.1	-0.0631066
22.11	-0.0657571
22.12	-0.0608433
22.13	-0.0692495
22.14	-0.0635265
22.15	-0.0723496
22.16	-0.0826062
22.17	-0.0751467
22.18	-0.083976
22.19	-0.0813316
22.2	-0.0843078
22.21	-0.087566
22.22	-0.082298
22.23	-0.0950328
22.24	-0.0874723
22.25	-0.0895765
22.26	-0.0953407
22.27	-0.0851433
22.28	-0.0927064
22.29	-0.089476
22.3	-0.0947454
22.31	-0.102812
22.32	-0.0928973
22.33	-0.0989378
22.34	-0.0897602
22.35	-0.0887328
22.36	-0.0979233
22.37	-0.089286
22.38	-0.0846992
22.39	-0.0616459
22.4	-0.0483742
22.41	-0.0430931
22.42	-0.0257708
22.43	-0.0260084
22.44	-0.0283138
22.45	-0.0551512
22.46	-0.0865844
22.47	-0.0996044
22.48	-0.118383
22.49	-0.111679
22.5	-0.112729
22.51	-0.130681
22.52	-0.102573
22.53	0.0920923
22.54	0.508818
22.55	0.731981
22.56	0.480366
22.57	0.126395
22.58	-0.0563576
22.59	-0.0776792
22.6	-0.0685811
22.61	-0.0678972
22.62	-0.0578174
22.63	-0.0596917
22.64	-0.0392051
22.65	-0.0273753
22.66	-0.0245162
22.67	-0.00815047
22.68	-0.00332977
22.69	0.0243667
22.7	0.0505336
22.71	0.0780572
22.72	0.130484
22.73	0.177061
22.74	0.236635
22.75	0.289345
22.76	0.328685
22.77	0.364448
22.78	0.361979
22.79	0.344328
22.8	0.293882
22.81	0.217689
22.82	0.144372
22.83	0.0585315
22.84	0.00377308
22.85	-0.0349872
22.86	-0.0624623
22.87	-0.0690442
22.88	-0.0850143
22.89	-0.0841101
22.9	-0.088664
22.91	-0.0936035
22.92	-0.0797581
22.93	-0.0788826
22.94	-0.0694139
22.95	-0.0725296
22.96	-0.0782386
22.97	-0.0689009
22.98	-0.0764072
22.99	-0.06797
23	-0.0671531
23.01	-0.0764158
23.02	-0.0734292
23.03	-0.0860713
23.04	-0.0848186
23.05	-0.087203
23.06	-0.0912467
23.07	-0.0838179
23.08	-0.0918874
23.09	-0.0895192
23.1	-0.0912903
23.11	-0.0986408
23.12	-0.0936714
23.13	-0.100338
23.14	-0.0894351
23.15	-0.0932161
23.16	-0.105576
23.17	-0.0986255
23.18	-0.101071
23.19	-0.0948617
23.2	-0.103709
23.21	-0.11078
23.22	-0.101553
23.23	-0.112528
23.24	-0.106192
23.25	-0.0959604
23.26	-0.086995
23.27	-0.0663497
23.28	-0.0621608
23.29	-0.0453261
23.3	-0.0336686
23.31	-0.0358319
23.32	-0.047161
23.33	-0.0904046
23.34	-0.112028
23.35	-0.122935
23.36	-0.130449
23.37	-0.122816
23.38	-0.13861
23.39	-0.146434
23.4	-0.0800909
23.41	0.205368
23.42	0.612504
23.43	0.656748
23.44	0.327277
23.45	0.0255496
23.46	-0.0880315
23.47	-0.0952863
23.48	-0.0959465
23.49	-0.0784943
23.5	-0.0723951
23.51	-0.0691018
23.52	-0.055449
23.53	-0.0547441
23.54	-0.0354588
23.55	-0.0200221
23.56	-0.0046782
23.57	0.025864
23.58	0.0441018
23.59	0.0877362
23.6	0.135725
23.61	0.187615
23.62	0.251947
23.63	0.294178
23.64	0.337331
23.65	0.361006
23.66	0.358741
23.67	0.333119
23.68	0.25985
23.69	0.190939
23.7	0.111888
23.71	0.0406444
23.72	-0.00468401
23.73	-0.0512717
23.74	-0.0679113
23.75	-0.0822168
23.76	-0.0954662
23.77	-0.0910765
23.78	-0.0992845
23.79	-0.0918638
23.8	-0.0862427
23.81	-0.0852945
23.82	-0.0769412
23.83	-0.0852952
23.84	-0.0753735
23.85	-0.0717661
23.86	-0.0718858
23.87	-0.0631303
23.88	-0.0754328
23.89	-0.0706915
23.9	-0.0724552
23.91	-0.085339
23.92	-0.0885636
23.93	-0.0981268
23.94	-0.0869983
23.95	-0.0876067
23.96	-0.0952699
23.97	-0.0878471
23.98	-0.0981693
23.99	-0.0943654
24	-0.094363
24.01	-0.0950326
24.02	-0.0876169
24.03	-0.0977062
24.04	-0.0936982
24.05	-0.0959282
24.06	-0.0988089
24.07	-0.0782997
24.08	-0.0685677
24.09	-0.0473199
24.1	-0.0344136
24.11	-0.0238683
24.12	-0.0116258
24.13	-0.0362322
24.14	-0.0624209
24.15	-0.0958378
24.16	-0.117094
24.17	-0.112292
24.18	-0.113765
24.19	-0.106686
24.2	-0.122544
24.21	-0.102742
24.22	0.122234
24.23	0.524523
24.24	0.721529
24.25	0.454707
24.26	0.0991272
24.27	-0.0525616
24.28	-0.0827254
24.29	-0.0670509
24.3	-0.0600921
24.31	-0.0602932
24.32	-0.0425484
24.33	-0.0466399
24.34	-0.0375328
24.35	-0.0240523
24.36	-0.00784629
24.37	0.0199369
24.38	0.0422112
24.39	0.0730124
24.4	0.10493
24.41	0.13936
24.42	0.199695
24.43	0.246257
24.44	0.298823
24.45	0.340838
24.46	0.355037
24.47	0.361229
24.48	0.32449
24.49	0.269626
24.5	0.191594
24.51	0.105923
24.52	0.046848
24.53	-0.0182671
24.54	-0.0519213
24.55	-0.0662988
24.56	-0.0825725
24.57	-0.0804785
24.58	-0.0915457
24.59	-0.0891162
24.6	-0.087612
24.61	-0.094723
24.62	-0.0834267
24.63	-0.0870372
24.64	-0.07952
24.65	-0.0756664
24.66	-0.0822786
24.67	-0.0763793
24.68	-0.0830679
24.69	-0.07726
24.7	-0.0773858
24.71	-0.0917408
24.72	-0.0893415
24.73	-0.0991053
24.74	-0.0971852
24.75	-0.0942808
24.76	-0.101906
24.77	-0.0945848
24.78	-0.102311
24.79	-0.0984358
24.8	-0.0960108
24.81	-0.110009
24.82	-0.103737
24.83	-0.107566
24.84	-0.103839
24.85	-0.10438
24.86	-0.111314
24.87	-0.0957555
24.88	-0.0924905
24.89	-0.0821157
24.9	-0.0673542
24.91	-0.0552486
24.92	-0.0304956
24.93	-0.0358025
24.94	-0.0431345
24.95	-0.0610644
24.96	-0.0964474
24.97	-0.112913
24.98	-0.133742
24.99	-0.132328
25	-0.130293
25.01	-0.149525
25.02	-0.142159
25.03	-0.000826559
25.04	0.39151
25.05	0.7136
25.06	0.554728
25.07	0.187283
25.08	-0.0392756
25.09	-0.0881544
25.1	-0.0808995
25.11	-0.082069
25.12	-0.0730703
25.13	-0.0752303
25.14	-0.0620324
25.15	-0.0457816
25.16	-0.0380957
25.17	-0.015522
25.18	-0.00832531
25.19	0.0148729
25.2	0.0451474
25.21	0.0734133
25.22	0.120851
25.23	0.163118
25.24	0.226524
25.25	0.28909
25.26	0.325304
25.27	0.360281
25.28	0.36415
25.29	0.349658
25.3	0.304976
25.31	0.226696
25.32	0.154572
25.33	0.0726153
25.34	0.0153612
25.35	-0.0278766
25.36	-0.065132
25.37	-0.0706216
25.38	-0.0766044
25.39	-0.0769795
25.4	-0.0834836
25.41	-0.0945948
25.42	-0.0882876
25.43	-0.0970348
25.44	-0.0923796
25.45	-0.0875102
25.46	-0.0887044
25.47	-0.0727235
25.48	-0.0765288
25.49	-0.077628
25.5	-0.0775465
25.51	-0.0849067
25.52	-0.0775467
25.53	-0.0910459
25.54	-0.0967785
25.55	-0.0987288
25.56	-0.104378
25.57	-0.0959533
25.58	-0.100973
25.59	-0.0971192
25.6	-0.0985174
25.61	-0.110325
25.62	-0.105915
25.63	-0.112691
25.64	-0.103878
25.65	-0.0955391
25.66	-0.102445
25.67	-0.104237
25.68	-0.117975
25.69	-0.113215
25.7	-0.103048
25.71	-0.0967727
25.72	-0.0773324
25.73	-0.0696763
25.74	-0.0458845
25.75	-0.0285039
25.76	-0.0412464
25.77	-0.0555057
25.78	-0.0914513
25.79	-0.111507
25.8	-0.117096
25.81	-0.127825
25.82	-0.12428
25.83	-0.137675
25.84	-0.133561
25.85	-0.0197691
25.86	0.31586
25.87	0.663089
25.88	0.576813
25.89	0.219132
25.9	-0.0272623
25.91	-0.100952
25.92	-0.086782
25.93	-0.086199
25.94	-0.0775992
25.95	-0.0614773
25.96	-0.0522732
25.97	-0.0325495
25.98	-0.0361014
25.99	-0.0245959
26	-0.00293709
26.01	0.0131153
26.02	0.0436162
26.03	0.0670887
26.04	0.111623
26.05	0.162383
26.06	0.211554
26.07	0.269373
26.08	0.301874
26.09	0.337718
26.1	0.359056
26.11	0.341103
26.12	0.304058
26.13	0.229373
26.14	0.150626
26.15	0.0748068
26.16	0.00353313
26.17	-0.0374616
26.18	-0.0780296
26.19	-0.0915667
26.2	-0.0924475
26.21	-0.0997668
26.22	-0.0973026
26.23	-0.109946
26.24	-0.10677
26.25	-0.0999945
26.26	-0.1011
26.27	-0.0904555
26.28	-0.092441
26.29	-0.0808594
26.3	-0.0786977
26.31	-0.0917186
26.32	-0.085591
26.33	-0.0922058
26.34	-0.0875706
26.35	-0.0871464
26.36	-0.0990215
26.37	-0.0937305
26.38	-0.106503
26.39	-0.103868
26.4	-0.0970134
26.41	-0.1031
26.42	-0.0992123
26.43	-0.10874
26.44	-0.0970521
26.45	-0.0739042
26.46	-0.0612311
26.47	-0.0372858
26.48	-0.0369404
26.49	-0.0307036
26.5	-0.035775
26.51	-0.0679193
26.52	-0.0915301
26.53	-0.119214
26.54	-0.121268
26.55	-0.122668
26.56	-0.131081
26.57	-0.13465
26.58	-0.147171
26.59	-0.017426
26.6	0.34485
26.61	0.664689
26.62	0.569473
26.63	0.196821
26.64	-0.0406587
26.65	-0.0984219
26.66	-0.0977187
26.67	-0.0774977
26.68	-0.0784604
26.69	-0.0691433
26.7	-0.0552193
26.71	-0.0491149
26.72	-0.0290618
26.73	-0.0240025
26.74	-0.00721908
26.75	0.0191241
26.76	0.0407403
26.77	0.0787569
26.78	0.112879
26.79	0.16657
26.8	0.224353
26.81	0.276452
26.82	0.332998
26.83	0.356412
26.84	0.365003
26.85	0.345168
26.86	0.285687
26.87	0.219053
26.88	0.128997
26.89	0.0541456
26.9	-0.0019802
26.91	-0.0472974
26.92	-0.0635217
26.93	-0.0872228
26.94	-0.0906287
26.95	-0.0911303
26.96	-0.0982104
26.97	-0.0898287
26.98	-0.1013
26.99	-0.0923576
27	-0.0856256
27.01	-0.0914112
27.02	-0.0795591
27.03	-0.08037
27.04	-0.0729649
27.05	-0.0749544
27.06	-0.0875633
27.07	-0.0798315
27.08	-0.0890745
27.09	-0.0885681
27.1	-0.0838084
27.11	-0.094189
27.12	-0.0946665
27.13	-0.105321
27.14	-0.102808
27.15	-0.103475
27.16	-0.108366
27.17	-0.0946198
27.18	-0.0999083
27.19	-0.0944936
27.2	-0.0834284
27.21	-0.0756691
27.22	-0.0493459
27.23	-0.041083
27.24	-0.0279786
27.25	-0.028283
27.26	-0.0585474
27.27	-0.0874208
27.28	-0.120017
27.29	-0.127316
27.3	-0.132854
27.31	-0.137689
27.32	-0.131854
27.33	-0.148235
27.34	-0.0560552
27.35	0.267988
27.36	0.63686
27.37	0.634624
27.38	0.268069
27.39	-0.0130631
27.4	-0.0970607
27.41	-0.104518
27.42	-0.0861862
27.43	-0.0818545
27.44	-0.0689484
27.45	-0.0648081
27.46	-0.0666178
27.47	-0.04471
27.48	-0.0346883
27.49	-0.0132721
27.5	0.00551486
27.51	0.0217094
27.52	0.0635315
27.53	0.0970122
27.54	0.147852
27.55	0.206195
27.56	0.253563
27.57	0.306697
27.58	0.335311
27.59	0.356123
27.6	0.343004
27.61	0.289295
27.62	0.231814
27.63	0.145885
27.64	0.0736574
27.65	0.0147124
27.66	-0.0403157
27.67	-0.0646724
27.68	-0.0855061
27.69	-0.0918019
27.7	-0.100826
27.71	-0.108187
27.72	-0.0931814
27.73	-0.0975653
27.74	-0.0932473
27.75	-0.0862226
27.76	-0.0899581
27.77	-0.0815608
27.78	-0.0852428
27.79	-0.0818523
27.8	-0.0799875
27.81	-0.0838058
27.82	-0.0747794
27.83	-0.0878188
27.84	-0.0898119
27.85	-0.0917929
27.86	-0.10198
27.87	-0.093013
27.88	-0.0990454
27.89	-0.101236
27.9	-0.103411
27.91	-0.104907
27.92	-0.0944827
27.93	-0.104059
27.94	-0.104925
27.95	-0.107586
27.96	-0.11293
27.97	-0.100232
27.98	-0.105559
27.99	-0.0954151
28	-0.0813864
28.01	-0.070523
28.02	-0.0380154
28.03	-0.0268425
28.04	-0.0198333
28.05	-0.0364743
28.06	-0.0760927
28.07	-0.0934441
28.08	-0.11729
28.09	-0.123682
28.1	-0.1253
28.11	-0.134116
28.12	-0.133726
28.13	-0.144265
28.14	-0.0237026
28.15	0.339568
28.16	0.68676
28.17	0.602886
28.18	0.216656
28.19	-0.0307812
28.2	-0.0921653
28.21	-0.0940775
28.22	-0.07801
28.23	-0.0809316
28.24	-0.0698472
28.25	-0.0579743
28.26	-0.0560356
28.27	-0.0366823
28.28	-0.0323095
28.29	-0.0151885
28.3	0.00981612
28.31	0.0310827
28.32	0.0687687
28.33	0.101986
28.34	0.155328
28.35	0.215037
28.36	0.271444
28.37	0.329986
28.38	0.356235
28.39	0.372485
28.4	0.359469
28.41	0.306443
28.42	0.241706
28.43	0.150693
28.44	0.0746593
28.45	0.0159599
28.46	-0.0318721
28.47	-0.0520652
28.48	-0.0782568
28.49	-0.0818054
28.5	-0.0819753
28.51	-0.0930752
28.52	-0.0869084
28.53	-0.094701
28.54	-0.0870453
28.55	-0.0774265
28.56	-0.0804892
28.57	-0.0726417
28.58	-0.0778036
28.59	-0.0712792
28.6	-0.0694941
28.61	-0.0810689
28.62	-0.0761861
28.63	-0.0845869
28.64	-0.0818566
28.65	-0.0799685
28.66	-0.0908366
28.67	-0.0874423
28.68	-0.0974705
28.69	-0.0967851
28.7	-0.0945098
28.71	-0.0987493
28.72	-0.0936932
28.73	-0.103864
28.74	-0.0974214
28.75	-0.0978051
28.76	-0.108732
28.77	-0.101639
28.78	-0.107222
28.79	-0.102079
28.8	-0.100568
28.81	-0.109227
28.82	-0.100364
28.83	-0.109596
28.84	-0.103313
28.85	-0.0916352
28.86	-0.083023
28.87	-0.0557806
28.88	-0.0479772
28.89	-0.0334678
28.9	-0.0242915
28.91	-0.0382994
28.92	-0.0544724
28.93	-0.0910873
28.94	-0.106458
28.95	-0.111809
28.96	-0.122712
28.97	-0.119492
28.98	-0.135396
28.99	-0.137667
29	-0.0394381
29.01	0.290427
29.02	0.680548
29.03	0.643689
29.04	0.279878
29.05	0.00815379
29.06	-0.0788372
29.07	-0.0722547
29.08	-0.0734174
29.09	-0.0684451
29.1	-0.059218
29.11	-0.0564653
29.12	-0.0395996
29.13	-0.0311237
29.14	-0.00504194
29.15	0.017606
29.16	0.0235121
29.17	0.0466164
29.18	0.0654921
29.19	0.108182
29.2	0.162844
29.21	0.212141
29.22	0.273573
29.23	0.316783
29.24	0.361448
29.25	0.381215
29.26	0.367437
29.27	0.339624
29.28	0.268008
29.29	0.192949
29.3	0.118086
29.31	0.0479252
29.32	0.0044007
29.33	-0.0382448
29.34	-0.0537995
29.35	-0.064062
29.36	-0.0766421
29.37	-0.0690659
29.38	-0.0743524
29.39	-0.0672228
29.4	-0.0634524
29.41	-0.0700193
29.42	-0.0608699
29.43	-0.0650147
29.44	-0.0552445
29.45	-0.0533609
29.46	-0.0654188
29.47	-0.0594182
29.48	-0.0649548
29.49	-0.0680317
29.5	-0.072116
29.51	-0.0782397
29.52	-0.0742952
29.53	-0.0867706
29.54	-0.0867851
29.55	-0.0865103
29.56	-0.0908265
29.57	-0.0814604
29.58	-0.0913956
29.59	-0.0883778
29.6	-0.0861041
29.61	-0.0949622
29.62	-0.0934147
29.63	-0.104981
29.64	-0.0995187
29.65	-0.0938989
29.66	-0.100338
29.67	-0.0948906
29.68	-0.10507
29.69	-0.0998051
29.7	-0.096933
29.71	-0.104477
29.72	-0.0955582
29.73	-0.101712
29.74	-0.0868178
29.75	-0.0621316
29.76	-0.0528209
29.77	-0.031918
29.78	-0.0324871
29.79	-0.0393691
29.8	-0.0682539
29.81	-0.109924
29.82	-0.115995
29.83	-0.121148
29.84	-0.118175
29.85	-0.125331
29.86	-0.141783
29.87	-0.135385
29.88	-0.026115
29.89	0.32737
29.9	0.662865
29.91	0.562349
29.92	0.20026
29.93	-0.0523775
29.94	-0.10696
29.95	-0.0936949
29.96	-0.0894751
29.97	-0.0762486
29.98	-0.0789241
29.99	-0.0565772
30	-0.0272377
30.01	-0.0298744
30.02	-0.0206215
30.03	-0.0162469
30.04	0.00516567
30.05	0.039971
30.06	0.0662816
30.07	0.114351
30.08	0.155343
30.09	0.207175
30.1	0.267403
30.11	0.308107
30.12	0.34364
30.13	0.344359
30.14	0.335096
30.15	0.306926
30.16	0.236956
30.17	0.169461
30.18	0.0820211
30.19	0.0141584
30.2	-0.0277541
30.21	-0.0683686
30.22	-0.07729
30.23	-0.0885363
30.24	-0.0913844
30.25	-0.0893999
30.26	-0.0967475
30.27	-0.0871777
30.28	-0.0909548
30.29	-0.0884414
30.3	-0.0819927
30.31	-0.0860238
30.32	-0.0760682
30.33	-0.0827326
30.34	-0.0810787
30.35	-0.0800184
30.36	-0.0942539
30.37	-0.0908497
30.38	-0.0956787
30.39	-0.0976225
30.4	-0.101364
30.41	-0.113261
30.42	-0.104412
30.43	-0.112104
30.44	-0.114642
30.45	-0.110374
30.46	-0.115975
30.47	-0.110681
30.48	-0.119161
30.49	-0.109132
30.5	-0.0886914
30.51	-0.077856
30.52	-0.0511404
30.53	-0.0448976
30.54	-0.0364156
30.55	-0.0331973
30.56	-0.0605565
30.57	-0.0841459
30.58	-0.113743
30.59	-0.123415
30.6	-0.123485
30.61	-0.133357
30.62	-0.128087
30.63	-0.150461
30.64	-0.108932
30.65	0.153358
30.66	0.560286
30.67	0.703662
30.68	0.391012
30.69	0.0570702
30.7	-0.0698448
30.71	-0.0919932
30.72	-0.0787831
30.73	-0.0775835
30.74	-0.0689558
30.75	-0.0569209
30.76	-0.0562161
30.77	-0.0365306
30.78	-0.0270009
30.79	-0.0097974
30.8	0.0140099
30.81	0.0260407
30.82	0.0599186
30.83	0.0884041
30.84	0.138437
30.85	0.198046
30.86	0.25061
30.87	0.319401
30.88	0.35645
30.89	0.375213
30.9	0.371904
30.91	0.325932
30.92	0.270493
30.93	0.186524
30.94	0.10762
30.95	0.0360423
30.96	-0.0265256
30.97	-0.0538153
30.98	-0.0831971
30.99	-0.0885726
31	-0.0852487
31.01	-0.0992449
31.02	-0.094667
31.03	-0.0953214
31.04	-0.0877241
31.05	-0.082223
31.06	-0.0879694
31.07	-0.0710357
31.08	-0.0697721
31.09	-0.0673808
31.1	-0.061953
31.11	-0.0727891
31.12	-0.0672998
31.13	-0.0717559
31.14	-0.0728711
31.15	-0.0708004
31.16	-0.0827353
31.17	-0.0788149
31.18	-0.085355
31.19	-0.0843095
31.2	-0.082751
31.21	-0.0949351
31.22	-0.0934321
31.23	-0.103422
31.24	-0.100421
31.25	-0.0950444
31.26	-0.102897
31.27	-0.0974997
31.28	-0.10516
31.29	-0.101445
31.3	-0.0910047
31.31	-0.0904542
31.32	-0.067973
31.33	-0.0566594
31.34	-0.0415597
31.35	-0.0254101
31.36	-0.0290533
31.37	-0.0366772
31.38	-0.077101
31.39	-0.110781
31.4	-0.127679
31.41	-0.138982
31.42	-0.126233
31.43	-0.136612
31.44	-0.148588
31.45	-0.109818
31.46	0.1224
31.47	0.560356
31.48	0.72654
31.49	0.432327
31.5	0.0888927
31.51	-0.0617838
31.52	-0.0689682
31.53	-0.0707164
31.54	-0.0715582
31.55	-0.0668615
31.56	-0.0640997
31.57	-0.0433188
31.58	-0.0453541
31.59	-0.0369443
31.6	-0.0133681
31.61	-0.00040902
31.62	0.028674
31.63	0.0481306
31.64	0.0867668
31.65	0.134385
31.66	0.175495
31.67	0.240549
31.68	0.293692
31.69	0.346328
31.7	0.381518
31.71	0.376661
31.72	0.35736
31.73	0.293765
31.74	0.213046
31.75	0.131675
31.76	0.0460862
31.77	-0.00765429
31.78	-0.0473479
31.79	-0.0615857
31.8	-0.0665679
31.81	-0.0848434
31.82	-0.08456
31.83	-0.0937097
31.84	-0.0899263
31.85	-0.0817433
31.86	-0.0867447
31.87	-0.0688458
31.88	-0.0737181
31.89	-0.0724699
31.9	-0.0658077
31.91	-0.0751795
31.92	-0.0705166
31.93	-0.080257
31.94	-0.0807525
31.95	-0.0761953
31.96	-0.0857463
31.97	-0.0832757
31.98	-0.0896585
31.99	-0.0891697
32	-0.0865767
32.01	-0.0947828
32.02	-0.0907298
32.03	-0.104253
32.04	-0.106757
32.05	-0.103214
32.06	-0.113002
32.07	-0.109569
32.08	-0.113766
32.09	-0.108098
32.1	-0.105584
32.11	-0.120608
32.12	-0.111489
32.13	-0.101056
32.14	-0.0802763
32.15	-0.0630972
32.16	-0.0588742
32.17	-0.0384443
32.18	-0.0406259
32.19	-0.0585862
32.2	-0.0880791
32.21	-0.121902
32.22	-0.125152
32.23	-0.134557
32.24	-0.13717
32.25	-0.13679
32.26	-0.157778
32.27	-0.123762
32.28	0.0925074
32.29	0.514957
32.3	0.716559
32.31	0.44015
32.32	0.100357
32.33	-0.0645441
32.34	-0.0896584
32.35	-0.0795753
32.36	-0.0844216
32.37	-0.0723229
32.38	-0.0677648
32.39	-0.0584151
32.4	-0.0466869
32.41	-0.0459805
32.42	-0.0228034
32.43	-0.00509135
32.44	0.0187496
32.45	0.0475274
32.46	0.0758821
32.47	0.128155
32.48	0.168427
32.49	0.225697
32.5	0.285912
32.51	0.327879
32.52	0.365139
32.53	0.36316
32.54	0.340825
32.55	0.290222
32.56	0.208521
32.57	0.138416
32.58	0.0600655
32.59	0.00278529
32.6	-0.03758
32.61	-0.0686691
32.62	-0.0739559
32.63	-0.0903816
32.64	-0.0938251
32.65	-0.0879507
32.66	-0.0889192
32.67	-0.0764893
32.68	-0.0785349
32.69	-0.0746027
32.7	-0.0686815
32.71	-0.0751595
32.72	-0.0671804
32.73	-0.0754251
32.74	-0.0754367
32.75	-0.0696509
32.76	-0.0762165
32.77	-0.0698273
32.78	-0.0810901
32.79	-0.0806252
32.8	-0.0720673
32.81	-0.0822441
32.82	-0.0798963
32.83	-0.0874333
32.84	-0.0892827
32.85	-0.0884535
32.86	-0.094983
32.87	-0.0863867
32.88	-0.0955104
32.89	-0.0951238
32.9	-0.0876732
32.91	-0.0921009
32.92	-0.0839433
32.93	-0.0919029
32.94	-0.0934201
32.95	-0.0942468
32.96	-0.104846
32.97	-0.0922959
32.98	-0.0823257
32.99	-0.0604316
33	-0.0363491
33.01	-0.028424
33.02	-0.0109441
33.03	-0.0285995
33.04	-0.0633273
33.05	-0.09495
33.06	-0.121238
33.07	-0.118106
33.08	-0.123492
33.09	-0.121088
33.1	-0.126617
33.11	-0.134479
33.12	0.0177185
33.13	0.40058
33.14	0.714304
33.15	0.556692
33.16	0.184712
33.17	-0.0147821
33.18	-0.0752927
33.19	-0.0752152
33.2	-0.068992
33.21	-0.0719104
33.22	-0.0607071
33.23	-0.0672642
33.24	-0.060012
33.25	-0.0437047
33.26	-0.0356471
33.27	-0.0076863
33.28	0.00427445
33.29	0.0278516
33.3	0.0639904
33.31	0.0951428
33.32	0.152472
33.33	0.202635
33.34	0.25913
33.35	0.308802
33.36	0.332239
33.37	0.353831
33.38	0.333903
33.39	0.292723
33.4	0.236042
33.41	0.159048
33.42	0.0929173
33.43	0.0194711
33.44	-0.0292614
33.45	-0.0570649
33.46	-0.0834553
33.47	-0.0850352
33.48	-0.0953808
33.49	-0.0939899
33.5	-0.0845583
33.51	-0.0859956
33.52	-0.0753166
33.53	-0.081109
33.54	-0.0790053
33.55	-0.0729867
33.56	-0.0747109
33.57	-0.0636393
33.58	-0.075006
33.59	-0.0758636
33.6	-0.0725949
33.61	-0.0849113
33.62	-0.0793412
33.63	-0.086728
33.64	-0.0855096
33.65	-0.0807951
33.66	-0.086518
33.67	-0.076921
33.68	-0.085986
33.69	-0.0896201
33.7	-0.08622
33.71	-0.0920945
33.72	-0.0849151
33.73	-0.0927965
33.74	-0.0945383
33.75	-0.0926876
33.76	-0.0954769
33.77	-0.0845558
33.78	-0.0947252
33.79	-0.0989841
33.8	-0.0914389
33.81	-0.0828147
33.82	-0.0529965
33.83	-0.0447337
33.84	-0.0349603
33.85	-0.0215012
33.86	-0.0252394
33.87	-0.0323433
33.88	-0.0724735
33.89	-0.097904
33.9	-0.105502
33.91	-0.117467
33.92	-0.113223
33.93	-0.128695
33.94	-0.142746
33.95	-0.0759383
33.96	0.215785
33.97	0.624065
33.98	0.65227
33.99	0.311907
34	0.0293241
34.01	-0.0760074
34.02	-0.0763261
34.03	-0.0775253
34.04	-0.0747674
34.05	-0.0666327
34.06	-0.0649276
34.07	-0.0461108
34.08	-0.0441171
34.09	-0.0320773
34.1	-0.0106072
34.11	0.00479886
34.12	0.0403621
34.13	0.0612509
34.14	0.0945264
34.15	0.141429
34.16	0.184062
34.17	0.246806
34.18	0.285184
34.19	0.31824
34.2	0.336433
34.21	0.328492
34.22	0.314169
34.23	0.251763
34.24	0.18422
34.25	0.119242
34.26	0.0462671
34.27	0.000540024
34.28	-0.0443009
34.29	-0.0635775
34.3	-0.0716068
34.31	-0.0845409
34.32	-0.0762889
34.33	-0.086342
34.34	-0.0818438
34.35	-0.0721414
34.36	-0.0759671
34.37	-0.064104
34.38	-0.0668781
34.39	-0.0646135
34.4	-0.0633805
34.41	-0.077433
34.42	-0.0740282
34.43	-0.0806786
34.44	-0.0787459
34.45	-0.0749173
34.46	-0.0835806
34.47	-0.0780728
34.48	-0.0939099
34.49	-0.113667
34.5	-0.103438
34.51	-0.103355
34.52	-0.08879
34.53	-0.0872249
34.54	-0.0895069
34.55	-0.0851796
34.56	-0.0912588
34.57	-0.079442
34.58	-0.0833055
34.59	-0.0848881
34.6	-0.0806196
34.61	-0.0921283
34.62	-0.0799965
34.63	-0.0763463
34.64	-0.0594046
34.65	-0.0352418
34.66	-0.0303488
34.67	-0.00794236
34.68	-0.00281648
34.69	-0.0159134
34.7	-0.0385171
34.71	-0.0766554
34.72	-0.0885184
34.73	-0.100841
34.74	-0.109145
34.75	-0.106785
34.76	-0.126556
34.77	-0.131533
34.78	-0.0142287
34.79	0.351736
34.8	0.677377
34.81	0.531453
34.82	0.171916
34.83	-0.0537251
34.84	-0.110968
34.85	-0.102762
34.86	-0.107932
34.87	-0.0949274
34.88	-0.0897181
34.89	-0.0778827
34.9	-0.0564108
34.91	-0.0520407
34.92	-0.0329955
34.93	-0.0223035
34.94	-0.00167033
34.95	0.0289451
34.96	0.0517268
34.97	0.102948
34.98	0.147289
34.99	0.198769
35	0.259035
35.01	0.288369
35.02	0.320959
35.03	0.333637
35.04	0.323802
35.05	0.292806
35.06	0.221871
35.07	0.156607
35.08	0.0862186
35.09	0.025895
35.1	-0.0163522
35.11	-0.0607612
35.12	-0.071378
35.13	-0.0814826
35.14	-0.0860662
35.15	-0.0851174
35.16	-0.0899953
35.17	-0.070763
35.18	-0.0719497
35.19	-0.0786693
35.2	-0.0732347
35.21	-0.0831806
35.22	-0.0756225
35.23	-0.0804304
35.24	-0.0882153
35.25	-0.0851426
35.26	-0.0936665
35.27	-0.0830567
35.28	-0.082422
35.29	-0.0851153
35.3	-0.0829198
35.31	-0.0964688
35.32	-0.0887806
35.33	-0.0921577
35.34	-0.0973005
35.35	-0.0935173
35.36	-0.100715
35.37	-0.0901124
35.38	-0.0957127
35.39	-0.103219
35.4	-0.093378
35.41	-0.0982576
35.42	-0.0911085
35.43	-0.0826625
35.44	-0.0573169
35.45	-0.0274472
35.46	-0.021732
35.47	-0.00816428
35.48	-0.0192013
35.49	-0.0454353
35.5	-0.0721067
35.51	-0.105759
35.52	-0.105727
35.53	-0.104838
35.54	-0.107434
35.55	-0.114172
35.56	-0.134353
35.57	-0.0324311
35.58	0.300248
35.59	0.672685
35.6	0.634265
35.61	0.265812
35.62	0.0209217
35.63	-0.0632895
35.64	-0.076449
35.65	-0.064475
35.66	-0.0654729
35.67	-0.0524318
35.68	-0.0514498
35.69	-0.0463824
35.7	-0.0300324
35.71	-0.02325
35.72	0.000384943
35.73	0.0143517
35.74	0.0328229
35.75	0.067599
35.76	0.0966581
35.77	0.146424
35.78	0.191883
35.79	0.244013
35.8	0.298159
35.81	0.318026
35.82	0.335681
35.83	0.327766
35.84	0.296995
35.85	0.248019
35.86	0.165467
35.87	0.0983127
35.88	0.0292349
35.89	-0.021538
35.9	-0.0453277
35.91	-0.0727214
35.92	-0.077813
35.93	-0.0873569
35.94	-0.0856016
35.95	-0.0737025
35.96	-0.0853053
35.97	-0.0805855
35.98	-0.0824396
35.99	-0.0759544
36	-0.0628771
36.01	-0.0734375
36.02	-0.0708477
36.03	-0.0715575
36.04	-0.0765987
36.05	-0.0718436
36.06	-0.0781945
36.07	-0.0740525
36.08	-0.0878579
36.09	-0.0947036
36.1	-0.0893336
36.11	-0.103152
36.12	-0.100118
36.13	-0.101609
36.14	-0.109756
36.15	-0.113197
36.16	-0.123817
36.17	-0.115834
36.18	-0.126519
36.19	-0.127356
36.2	-0.108672
36.21	-0.099778
36.22	-0.0751462
36.23	-0.0627744
36.24	-0.0414886
36.25	-0.0190026
36.26	-0.0395018
36.27	-0.0607263
36.28	-0.0964308
36.29	-0.117146
36.3	-0.115652
36.31	-0.127143
36.32	-0.119053
36.33	-0.130504
36.34	-0.14111
36.35	-0.0120245
36.36	0.343554
36.37	0.675937
36.38	0.545745
36.39	0.188337
36.4	-0.0160648
36.41	-0.0770103
36.42	-0.071919
36.43	-0.0792356
36.44	-0.0831605
36.45	-0.0695712
36.46	-0.0634556
36.47	-0.0400145
36.48	-0.0241991
36.49	0.00479935
36.5	0.0302721
36.51	0.0284932
36.52	0.0389837
36.53	0.0537703
36.54	0.0870892
36.55	0.13486
36.56	0.178022
36.57	0.216515
36.58	0.24003
36.59	0.25014
36.6	0.254668
36.61	0.215925
36.62	0.170771
36.63	0.105808
36.64	0.0330895
36.65	-0.0188105
36.66	-0.0687597
36.67	-0.0926404
36.68	-0.108351
36.69	-0.11419
36.7	-0.0976616
36.71	-0.0872135
36.72	-0.0636328
36.73	-0.0558465
36.74	-0.0543526
36.75	-0.0397735
36.76	-0.0402603
36.77	-0.0365012
36.78	-0.0428292
36.79	-0.0554447
36.8	-0.0590258
36.81	-0.0774142
36.82	-0.0825936
36.83	-0.092956
36.84	-0.107668
36.85	-0.106985
36.86	-0.118641
36.87	-0.107961
36.88	-0.0986755
36.89	-0.0953646
36.9	-0.0770357
36.91	-0.071911
36.92	-0.0649412
36.93	-0.0676998
36.94	-0.0646164
36.95	-0.0450349
36.96	-0.040155
36.97	-0.0278069
36.98	-0.01769
36.99	-0.00925458
37	-0.00522166
37.01	-0.0494446
37.02	-0.0847539
37.03	-0.112413
37.04	-0.132435
37.05	-0.134126
37.06	-0.147155
37.07	-0.14816
37.08	-0.158961
37.09	-0.102067
37.1	0.190441
37.11	0.566251
37.12	0.611394
37.13	0.284459
37.14	-0.0044228
37.15	-0.0937021
37.16	-0.111085
37.17	-0.100589
37.18	-0.0931854
37.19	-0.0820806
37.2	-0.0597832
37.21	-0.054182
37.22	-0.0309993
37.23	-0.0121587
37.24	-0.00019151
37.25	0.0237843
37.26	0.0327958
37.27	0.0612832
37.28	0.0939379
37.29	0.13039
37.3	0.185126
37.31	0.223325
37.32	0.265075
37.33	0.289396
37.34	0.297785
37.35	0.297131
37.36	0.258514
37.37	0.207478
37.38	0.138823
37.39	0.0667137
37.4	0.014097
37.41	-0.0359284
37.42	-0.0574504
37.43	-0.0740741
37.44	-0.0864249
37.45	-0.0861746
37.46	-0.0949169
37.47	-0.084415
37.48	-0.0815736
37.49	-0.0822789
37.5	-0.0716524
37.51	-0.0785805
37.52	-0.0689913
37.53	-0.0661124
37.54	-0.0772324
37.55	-0.0835759
37.56	-0.0932531
37.57	-0.0848597
37.58	-0.0887807
37.59	-0.103786
37.6	-0.105216
37.61	-0.119277
37.62	-0.116774
37.63	-0.111391
37.64	-0.107744
37.65	-0.0947691
37.66	-0.0949728
37.67	-0.0815033
37.68	-0.0744103
37.69	-0.0705672
37.7	-0.0676407
37.71	-0.102291
37.72	-0.129836
37.73	-0.151273
37.74	-0.163166
37.75	-0.156764
37.76	-0.16477
37.77	-0.164084
37.78	-0.173323
37.79	-0.0944574
37.8	0.222236
37.81	0.569371
37.82	0.555342
37.83	0.211494
37.84	-0.0609295
37.85	-0.137646
37.86	-0.147747
37.87	-0.129401
37.88	-0.127458
37.89	-0.121943
37.9	-0.102217
37.91	-0.098824
37.92	-0.0839667
37.93	-0.0759812
37.94	-0.0561064
37.95	-0.0236214
37.96	-0.00589624
37.97	0.041043
37.98	0.0872362
37.99	0.13046
38	0.182416
38.01	0.224221
38.02	0.273513
38.03	0.298502
38.04	0.305434
38.05	0.297446
38.06	0.249826
38.07	0.198748
38.08	0.122628
38.09	0.0486069
38.1	-0.000515471
38.11	-0.0498896
38.12	-0.0698795
38.13	-0.084843
38.14	-0.0882832
38.15	-0.0773199
38.16	-0.0811938
38.17	-0.0746554
38.18	-0.0809051
38.19	-0.0823569
38.2	-0.0666972
38.21	-0.0723147
38.22	-0.0690536
38.23	-0.0718445
38.24	-0.0691939
38.25	-0.067074
38.26	-0.0874645
38.27	-0.0886026
38.28	-0.0951055
38.29	-0.101549
38.3	-0.0982327
38.31	-0.109299
38.32	-0.0973624
38.33	-0.0866402
38.34	-0.0726256
38.35	-0.0492402
38.36	-0.0436933
38.37	-0.0347434
38.38	-0.0607727
38.39	-0.0992098
38.4	-0.117435
38.41	-0.135789
38.42	-0.135497
38.43	-0.144033
38.44	-0.146628
38.45	-0.147365
38.46	-0.121495
38.47	0.109438
38.48	0.513576
38.49	0.686554
38.5	0.419977
38.51	0.0720157
38.52	-0.0669284
38.53	-0.0870921
38.54	-0.0725707
38.55	-0.0494056
38.56	-0.055115
38.57	-0.0480251
38.58	-0.0441931
38.59	-0.0391942
38.6	-0.0229454
38.61	-0.0157201
38.62	0.0159463
38.63	0.0381404
38.64	0.0534378
38.65	0.087044
38.66	0.120128
38.67	0.177051
38.68	0.230289
38.69	0.282054
38.7	0.329772
38.71	0.340051
38.72	0.336249
38.73	0.299375
38.74	0.235541
38.75	0.161368
38.76	0.0716017
38.77	0.00664865
38.78	-0.0510045
38.79	-0.0880394
38.8	-0.0995726
38.81	-0.114684
38.82	-0.113311
38.83	-0.123714
38.84	-0.124758
38.85	-0.11056
38.86	-0.11293
38.87	-0.106467
38.88	-0.106947
38.89	-0.103628
38.9	-0.0970662
38.91	-0.108447
38.92	-0.103001
38.93	-0.110831
38.94	-0.118123
38.95	-0.114976
38.96	-0.131992
38.97	-0.130374
38.98	-0.128308
38.99	-0.13137
39	-0.126518
39.01	-0.124609
39.02	-0.0958418
39.03	-0.0771758
39.04	-0.0595363
39.05	-0.0415106
39.06	-0.0647956
39.07	-0.0947457
39.08	-0.134365
39.09	-0.153556
39.1	-0.151754
39.11	-0.160218
39.12	-0.151401
39.13	-0.164963
39.14	-0.161614
39.15	-0.00599794
39.16	0.365994
39.17	0.687215
39.18	0.537823
39.19	0.168826
39.2	-0.0341821
39.21	-0.0895943
39.22	-0.0750339
39.23	-0.0721205
39.24	-0.0693881
39.25	-0.0503233
39.26	-0.0386112
39.27	-0.0108601
39.28	0.0076866
39.29	0.0280319
39.3	0.0542778
39.31	0.065479
39.32	0.0954724
39.33	0.123125
39.34	0.165495
39.35	0.227717
39.36	0.273326
39.37	0.326305
39.38	0.357223
39.39	0.376164
39.4	0.388072
39.41	0.357132
39.42	0.303658
39.43	0.211838
39.44	0.119191
39.45	0.0547311
39.46	-0.0144893
39.47	-0.0578071
39.48	-0.0895362
39.49	-0.108253
39.5	-0.11248
39.51	-0.133991
39.52	-0.131352
39.53	-0.129996
39.54	-0.127194
39.55	-0.119675
39.56	-0.130839
39.57	-0.127084
39.58	-0.129217
39.59	-0.127864
39.6	-0.115235
39.61	-0.125561
39.62	-0.123467
39.63	-0.131309
39.64	-0.139208
39.65	-0.133056
39.66	-0.142698
39.67	-0.130627
39.68	-0.119921
39.69	-0.110205
39.7	-0.0856365
39.71	-0.0741668
39.72	-0.058778
39.73	-0.0817617
39.74	-0.124187
39.75	-0.148156
39.76	-0.173231
39.77	-0.172326
39.78	-0.1767
39.79	-0.17894
39.8	-0.171931
39.81	-0.169314
39.82	-0.0256928
39.83	0.326077
39.84	0.633966
39.85	0.53637
39.86	0.175104
39.87	-0.0501119
39.88	-0.115552
39.89	-0.108039
39.9	-0.0859022
39.91	-0.0818732
39.92	-0.0601448
39.93	-0.048721
39.94	-0.0394735
39.95	-0.0193886
39.96	-0.0147409
39.97	0.0097655
39.98	0.0288517
39.99	0.0557971
40	0.0947335
40.01	0.119011
40.02	0.173577
40.03	0.227154
40.04	0.2742
40.05	0.311247
40.06	0.318385
40.07	0.321982
40.08	0.291792
40.09	0.237438
40.1	0.172042
40.11	0.0868662
40.12	0.033244
40.13	-0.0201298
40.14	-0.0639197
40.15	-0.0820985
40.16	-0.102493
40.17	-0.099254
40.18	-0.105432
40.19	-0.110563
40.2	-0.0967062
40.21	-0.0960244
40.22	-0.0872585
40.23	-0.0891476
40.24	-0.0884503
40.25	-0.0829672
40.26	-0.0929516
40.27	-0.0878763
40.28	-0.0947378
40.29	-0.0993274
40.3	-0.0908217
40.31	-0.101229
40.32	-0.0993241
40.33	-0.101492
40.34	-0.109202
40.35	-0.101345
40.36	-0.0965424
40.37	-0.0735018
40.38	-0.0601505
40.39	-0.0418424
40.4	-0.0229817
40.41	-0.0369307
40.42	-0.0520641
40.43	-0.0867202
40.44	-0.118885
40.45	-0.130252
40.46	-0.141044
40.47	-0.131836
40.48	-0.141942
40.49	-0.156139
40.5	-0.123008
40.51	0.0668288
40.52	0.468217
40.53	0.682552
40.54	0.44054
40.55	0.0884377
40.56	-0.0920089
40.57	-0.108255
40.58	-0.100528
40.59	-0.0939345
40.6	-0.0789009
40.61	-0.0820277
40.62	-0.0672386
40.63	-0.0602606
40.64	-0.0462771
40.65	-0.0224732
40.66	-0.0141546
40.67	0.0148066
40.68	0.03764
40.69	0.0651675
40.7	0.115339
40.71	0.163617
40.72	0.230904
40.73	0.278911
40.74	0.31005
40.75	0.330493
40.76	0.316867
40.77	0.290215
40.78	0.223912
40.79	0.140001
40.8	0.0670032
40.81	-0.00657843
40.82	-0.0451442
40.83	-0.0799017
40.84	-0.10421
40.85	-0.109255
40.86	-0.12147
40.87	-0.109291
40.88	-0.109069
40.89	-0.113625
40.9	-0.109322
40.91	-0.115501
40.92	-0.101347
40.93	-0.0982581
40.94	-0.100583
40.95	-0.0919949
40.96	-0.0961066
40.97	-0.0918134
40.98	-0.098946
40.99	-0.100615
41	-0.0936174
41.01	-0.111032
41.02	-0.1077
41.03	-0.102824
41.04	-0.0868746
41.05	-0.0628421
41.06	-0.0585956
41.07	-0.0347435
41.08	-0.0221035
41.09	-0.0304508
41.1	-0.0552444
41.11	-0.10372
41.12	-0.117333
41.13	-0.12288
41.14	-0.121223
41.15	-0.113792
41.16	-0.133069
41.17	-0.140003
41.18	-0.07121
41.19	0.212207
41.2	0.606243
41.21	0.641474
41.22	0.309069
41.23	0.0136621
41.24	-0.0950113
41.25	-0.0907183
41.26	-0.0827152
41.27	-0.074355
41.28	-0.0717706
41.29	-0.0663254
41.3	-0.046122
41.31	-0.0510893
41.32	-0.0375939
41.33	-0.0161081
41.34	-0.00119122
41.35	0.0312726
41.36	0.0520756
41.37	0.0945011
41.38	0.142409
41.39	0.189536
41.4	0.251718
41.41	0.290242
41.42	0.325625
41.43	0.33179
41.44	0.302056
41.45	0.260066
41.46	0.184354
41.47	0.112999
41.48	0.0367518
41.49	-0.0332561
41.5	-0.0672648
41.51	-0.10175
41.52	-0.108101
41.53	-0.110641
41.54	-0.11623
41.55	-0.103767
41.56	-0.10664
41.57	-0.0973121
41.58	-0.0966068
41.59	-0.101264
41.6	-0.0918634
41.61	-0.0988545
41.62	-0.0903425
41.63	-0.083065
41.64	-0.0851814
41.65	-0.0765871
41.66	-0.0904204
41.67	-0.091741
41.68	-0.0933349
41.69	-0.0978244
41.7	-0.0890726
41.71	-0.0953394
41.72	-0.0947358
41.73	-0.0972141
41.74	-0.102641
41.75	-0.0950909
41.76	-0.0974507
41.77	-0.074585
41.78	-0.0547743
41.79	-0.0496781
41.8	-0.0254422
41.81	-0.0237391
41.82	-0.0320422
41.83	-0.0651828
41.84	-0.106789
41.85	-0.119752
41.86	-0.132617
41.87	-0.129364
41.88	-0.129898
41.89	-0.141736
41.9	-0.142352
41.91	-0.0548444
41.92	0.277049
41.93	0.638549
41.94	0.593769
41.95	0.242606
41.96	-0.0308073
41.97	-0.108314
41.98	-0.105751
41.99	-0.0946359
42	-0.0797844
42.01	-0.0856123
42.02	-0.078439
42.03	-0.0757373
42.04	-0.075137
42.05	-0.05282
42.06	-0.0371114
42.07	-0.00699871
42.08	0.0204926
42.09	0.0439138
42.1	0.0939905
42.11	0.138033
42.12	0.197024
42.13	0.251796
42.14	0.295132
42.15	0.334915
42.16	0.336573
42.17	0.320396
42.18	0.27157
42.19	0.189942
42.2	0.118615
42.21	0.0434757
42.22	-0.00820036
42.23	-0.0538092
42.24	-0.0874373
42.25	-0.0950281
42.26	-0.110941
42.27	-0.105711
42.28	-0.109543
42.29	-0.116099
42.3	-0.100125
42.31	-0.0986773
42.32	-0.090636
42.33	-0.0906964
42.34	-0.0930269
42.35	-0.0814933
42.36	-0.0946012
42.37	-0.10001
42.38	-0.098004
42.39	-0.0938078
42.4	-0.0840252
42.41	-0.0994807
42.42	-0.097617
42.43	-0.0979023
42.44	-0.108788
42.45	-0.102209
42.46	-0.103991
42.47	-0.0917889
42.48	-0.0791264
42.49	-0.0691817
42.5	-0.0407597
42.51	-0.0260223
42.52	-0.0125718
42.53	-0.029524
42.54	-0.073146
42.55	-0.103153
42.56	-0.131945
42.57	-0.127726
42.58	-0.128807
42.59	-0.13644
42.6	-0.135875
42.61	-0.140709
42.62	-0.00608236
42.63	0.348798
42.64	0.661114
42.65	0.550801
42.66	0.181824
42.67	-0.0417488
42.68	-0.0986833
42.69	-0.0994056
42.7	-0.0809622
42.71	-0.0840082
42.72	-0.0734294
42.73	-0.0636216
42.74	-0.059714
42.75	-0.0405985
42.76	-0.0376152
42.77	-0.0225317
42.78	-0.00325213
42.79	0.0216977
42.8	0.0655701
42.81	0.103374
42.82	0.159191
42.83	0.209678
42.84	0.254667
42.85	0.308195
42.86	0.326819
42.87	0.333742
42.88	0.307562
42.89	0.245605
42.9	0.176188
42.91	0.0875671
42.92	0.0235444
42.93	-0.025598
42.94	-0.0684197
42.95	-0.0843462
42.96	-0.105292
42.97	-0.108346
42.98	-0.110546
42.99	-0.116911
43	-0.104694
43.01	-0.108513
43.02	-0.0999249
43.03	-0.0954402
43.04	-0.0994723
43.05	-0.0906804
43.06	-0.0979002
43.07	-0.0965223
43.08	-0.0993765
43.09	-0.103414
43.1	-0.0966429
43.11	-0.109689
43.12	-0.111028
43.13	-0.112554
43.14	-0.110352
43.15	-0.0852211
43.16	-0.0718829
43.17	-0.0474356
43.18	-0.0313847
43.19	-0.0275655
43.2	-0.0319704
43.21	-0.078159
43.22	-0.11092
43.23	-0.130804
43.24	-0.14863
43.25	-0.143981
43.26	-0.152297
43.27	-0.15419
43.28	-0.15802
43.29	-0.0471492
43.3	0.319056
43.31	0.657969
43.32	0.565836
43.33	0.200355
43.34	-0.0404849
43.35	-0.094758
43.36	-0.102613
43.37	-0.0911409
43.38	-0.0863384
43.39	-0.0845273
43.4	-0.0674671
43.41	-0.0688628
43.42	-0.0535685
43.43	-0.0378386
43.44	-0.0232071
43.45	0.00844071
43.46	0.0242247
43.47	0.0621481
43.48	0.106985
43.49	0.152354
43.5	0.212254
43.51	0.255087
43.52	0.30109
43.53	0.327869
43.54	0.323141
43.55	0.301923
43.56	0.235614
43.57	0.164747
43.58	0.0855438
43.59	0.0112684
43.6	-0.0364874
43.61	-0.081205
43.62	-0.0952749
43.63	-0.10294
43.64	-0.112878
43.65	-0.107785
43.66	-0.113818
43.67	-0.105533
43.68	-0.102191
43.69	-0.101049
43.7	-0.0890132
43.71	-0.0964605
43.72	-0.0878879
43.73	-0.083873
43.74	-0.0911558
43.75	-0.0852688
43.76	-0.0984938
43.77	-0.0976965
43.78	-0.0959113
43.79	-0.102592
43.8	-0.101161
43.81	-0.112268
43.82	-0.1025
43.83	-0.0946186
43.84	-0.0904365
43.85	-0.0649932
43.86	-0.0518465
43.87	-0.0311123
43.88	-0.0226739
43.89	-0.0308487
43.9	-0.0481477
43.91	-0.0906736
43.92	-0.111116
43.93	-0.122585
43.94	-0.135255
43.95	-0.130076
43.96	-0.1406
43.97	-0.145436
43.98	-0.128533
43.99	0.0501618
44	0.462182
44.01	0.695225
44.02	0.470144
44.03	0.118887
44.04	-0.0584815
44.05	-0.0852796
44.06	-0.0901374
44.07	-0.0779343
44.08	-0.0707111
44.09	-0.072116
44.1	-0.0586323
44.11	-0.0583368
44.12	-0.0418971
44.13	-0.0298498
44.14	-0.0187404
44.15	0.0121347
44.16	0.032887
44.17	0.0714099
44.18	0.113074
44.19	0.155074
44.2	0.215805
44.21	0.259102
44.22	0.301683
44.23	0.32233
44.24	0.309807
44.25	0.283226
44.26	0.217298
44.27	0.148633
44.28	0.0758748
44.29	0.00285762
44.3	-0.0423911
44.31	-0.0850535
44.32	-0.100966
44.33	-0.108773
44.34	-0.113873
44.35	-0.106688
44.36	-0.111957
44.37	-0.105157
44.38	-0.101028
44.39	-0.100563
44.4	-0.0894626
44.41	-0.0963345
44.42	-0.0926543
44.43	-0.0873227
44.44	-0.0903776
44.45	-0.0848556
44.46	-0.0971839
44.47	-0.0984653
44.48	-0.102988
44.49	-0.108956
44.5	-0.104193
44.51	-0.112903
44.52	-0.103558
44.53	-0.102794
44.54	-0.110235
44.55	-0.0980269
44.56	-0.0996672
44.57	-0.0835655
44.58	-0.0655222
44.59	-0.0520251
44.6	-0.0281319
44.61	-0.0339435
44.62	-0.0498497
44.63	-0.081952
44.64	-0.117233
44.65	-0.124354
44.66	-0.135832
44.67	-0.129977
44.68	-0.130827
44.69	-0.146605
44.7	-0.129413
44.71	0.0321413
44.72	0.412331
44.73	0.651208
44.74	0.449054
44.75	0.109526
44.76	-0.082586
44.77	-0.106713
44.78	-0.0918123
44.79	-0.0868893
44.8	-0.0740553
44.81	-0.0800331
44.82	-0.0724802
44.83	-0.0604369
44.84	-0.0501026
44.85	-0.0242042
44.86	-0.0108552
44.87	0.0171424
44.88	0.0452062
44.89	0.0749249
44.9	0.123382
44.91	0.155567
44.92	0.202439
44.93	0.245318
44.94	0.277683
44.95	0.306699
44.96	0.300642
44.97	0.282995
44.98	0.23571
44.99	0.163749
45	0.0984998
45.01	0.0244767
45.02	-0.022614
45.03	-0.0596828
45.04	-0.0897312
45.05	-0.0918232
45.06	-0.0984651
45.07	-0.0911483
45.08	-0.0856774
45.09	-0.0921473
45.1	-0.0875267
45.11	-0.0944776
45.12	-0.0817217
45.13	-0.0785231
45.14	-0.0850677
45.15	-0.0776027
45.16	-0.0851151
45.17	-0.0821855
45.18	-0.0831821
45.19	-0.0912889
45.2	-0.0864937
45.21	-0.100589
45.22	-0.10301
45.23	-0.102906
45.24	-0.103966
45.25	-0.0895004
45.26	-0.0846795
45.27	-0.0673731
45.28	-0.0520653
45.29	-0.0426279
45.3	-0.0277076
45.31	-0.0514606
45.32	-0.0783693
45.33	-0.106659
45.34	-0.129593
45.35	-0.132105
45.36	-0.142702
45.37	-0.137944
45.38	-0.14394
45.39	-0.147102
45.4	-0.0180353
45.41	0.321284
45.42	0.65133
45.43	0.554045
45.44	0.186175
45.45	-0.0385433
45.46	-0.100853
45.47	-0.0897639
45.48	-0.0797115
45.49	-0.0859428
45.5	-0.0743363
45.51	-0.0661888
45.52	-0.0458427
45.53	-0.0315252
45.54	-0.0232132
45.55	0.00319722
45.56	0.0143614
45.57	0.0455778
45.58	0.0806678
45.59	0.113637
45.6	0.169983
45.61	0.216751
45.62	0.269506
45.63	0.308794
45.64	0.324384
45.65	0.333565
45.66	0.302458
45.67	0.25483
45.68	0.183766
45.69	0.100383
45.7	0.0405154
45.71	-0.0173221
45.72	-0.0443423
45.73	-0.0653298
45.74	-0.0876937
45.75	-0.085454
45.76	-0.094053
45.77	-0.0903239
45.78	-0.0845127
45.79	-0.0873079
45.8	-0.078099
45.81	-0.0804586
45.82	-0.0708546
45.83	-0.0680415
45.84	-0.073534
45.85	-0.0673176
45.86	-0.0801481
45.87	-0.0803478
45.88	-0.0814412
45.89	-0.0927531
45.9	-0.0892449
45.91	-0.0979655
45.92	-0.0952453
45.93	-0.0948478
45.94	-0.101269
45.95	-0.0929995
45.96	-0.0986225
45.97	-0.0943729
45.98	-0.0866376
45.99	-0.0758761
46	-0.0508056
46.01	-0.0463172
46.02	-0.0301332
46.03	-0.0216552
46.04	-0.0439163
46.05	-0.0689784
46.06	-0.106176
46.07	-0.121652
46.08	-0.128826
46.09	-0.137143
46.1	-0.132445
46.11	-0.151378
46.12	-0.126745
46.13	0.0677808
46.14	0.456966
46.15	0.692607
46.16	0.453515
46.17	0.101496
46.18	-0.0682213
46.19	-0.10062
46.2	-0.0850314
46.21	-0.0880125
46.22	-0.0786844
46.23	-0.0683008
46.24	-0.0630199
46.25	-0.044863
46.26	-0.0421693
46.27	-0.0218808
46.28	0.000848176
46.29	0.0173097
46.3	0.0506201
46.31	0.0743135
46.32	0.12271
46.33	0.177797
46.34	0.224877
46.35	0.279358
46.36	0.306766
46.37	0.332573
46.38	0.334125
46.39	0.296635
46.4	0.246364
46.41	0.162445
46.42	0.0909244
46.43	0.0279437
46.44	-0.0266033
46.45	-0.0535101
46.46	-0.0847129
46.47	-0.0904639
46.48	-0.0909289
46.49	-0.0967631
46.5	-0.0896592
46.51	-0.0988166
46.52	-0.0913076
46.53	-0.0838719
46.54	-0.0834077
46.55	-0.0740469
46.56	-0.0843633
46.57	-0.0826048
46.58	-0.0792261
46.59	-0.0795126
46.6	-0.0710922
46.61	-0.0861099
46.62	-0.0883829
46.63	-0.0902525
46.64	-0.0973266
46.65	-0.0914879
46.66	-0.0993711
46.67	-0.0963543
46.68	-0.0971881
46.69	-0.108709
46.7	-0.103834
46.71	-0.113343
46.72	-0.110045
46.73	-0.102043
46.74	-0.0926739
46.75	-0.0660435
46.76	-0.0564171
46.77	-0.0334377
46.78	-0.0199831
46.79	-0.0313871
46.8	-0.0472895
46.81	-0.0883625
46.82	-0.111328
46.83	-0.126075
46.84	-0.13587
46.85	-0.124086
46.86	-0.131416
46.87	-0.140043
46.88	-0.103186
46.89	0.12921
46.9	0.542337
46.91	0.681707
46.92	0.396232
46.93	0.067523
46.94	-0.0774617
46.95	-0.0850605
46.96	-0.0832819
46.97	-0.0744478
46.98	-0.0701759
46.99	-0.0669689
47	-0.0468895
47.01	-0.0459001
47.02	-0.0336077
47.03	-0.0143572
47.04	0.00143981
47.05	0.0352915
47.06	0.057383
47.07	0.0970715
47.08	0.14218
47.09	0.1875
47.1	0.246303
47.11	0.280551
47.12	0.321683
47.13	0.343167
47.14	0.330486
47.15	0.303335
47.16	0.236241
47.17	0.168559
47.18	0.0982391
47.19	0.0285204
47.2	-0.0158995
47.21	-0.057526
47.22	-0.0727712
47.23	-0.0819731
47.24	-0.0939969
47.25	-0.0850706
47.26	-0.0879867
47.27	-0.0785299
47.28	-0.075993
47.29	-0.0866393
47.3	-0.0768027
47.31	-0.0780298
47.32	-0.0689209
47.33	-0.0643176
47.34	-0.0737146
47.35	-0.0715093
47.36	-0.0836864
47.37	-0.0834662
47.38	-0.0905688
47.39	-0.102027
47.4	-0.0943433
47.41	-0.102571
47.42	-0.0980007
47.43	-0.0961736
47.44	-0.1001
47.45	-0.0901694
47.46	-0.101915
47.47	-0.105885
47.48	-0.105697
47.49	-0.113041
47.5	-0.109006
47.51	-0.118689
47.52	-0.110575
47.53	-0.0962389
47.54	-0.0889869
47.55	-0.0633397
47.56	-0.0481559
47.57	-0.0257893
47.58	-0.0180413
47.59	-0.0323727
47.6	-0.0530839
47.61	-0.0834194
47.62	-0.106003
47.63	-0.119665
47.64	-0.1351
47.65	-0.122178
47.66	-0.130272
47.67	-0.141857
47.68	-0.0477368
47.69	0.280261
47.7	0.657758
47.71	0.609699
47.72	0.25627
47.73	0.00659357
47.74	-0.0794664
47.75	-0.0742424
47.76	-0.0722617
47.77	-0.0654078
47.78	-0.0580947
47.79	-0.0676726
47.8	-0.0522955
47.81	-0.0450128
47.82	-0.025285
47.83	0.00350388
47.84	0.0163293
47.85	0.0453644
47.86	0.0681209
47.87	0.107197
47.88	0.154614
47.89	0.192662
47.9	0.254768
47.91	0.296301
47.92	0.324978
47.93	0.343518
47.94	0.330315
47.95	0.30418
47.96	0.233704
47.97	0.155609
47.98	0.0878041
47.99	0.0209947
48	-0.018062
48.01	-0.0563123
48.02	-0.0734012
48.03	-0.079978
48.04	-0.0873486
48.05	-0.0742576
48.06	-0.0759391
48.07	-0.0722576
48.08	-0.0658088
48.09	-0.0712944
48.1	-0.0570185
48.11	-0.0622806
48.12	-0.0666808
48.13	-0.0598368
48.14	-0.0707336
48.15	-0.0629314
48.16	-0.0694601
48.17	-0.0737876
48.18	-0.0730959
48.19	-0.0842104
48.2	-0.0810977
48.21	-0.0879852
48.22	-0.0890094
48.23	-0.0856443
48.24	-0.0945784
48.25	-0.0858088
48.26	-0.0945469
48.27	-0.0973856
48.28	-0.0949978
48.29	-0.109371
48.3	-0.107563
48.31	-0.110784
48.32	-0.108696
48.33	-0.105464
48.34	-0.106113
48.35	-0.0837622
48.36	-0.0713582
48.37	-0.0531238
48.38	-0.0315267
48.39	-0.0188976
48.4	-0.00704591
48.41	-0.0371365
48.42	-0.0787259
48.43	-0.10691
48.44	-0.128207
48.45	-0.122225
48.46	-0.131254
48.47	-0.133163
48.48	-0.138317
48.49	-0.124203
48.5	0.101408
48.51	0.510957
48.52	0.699884
48.53	0.437685
48.54	0.0942799
48.55	-0.0486272
48.56	-0.0821122
48.57	-0.0779742
48.58	-0.0719946
48.59	-0.0780376
48.6	-0.0671329
48.61	-0.0645832
48.62	-0.0487174
48.63	-0.025496
48.64	-0.0169761
48.65	0.0104559
48.66	0.0282956
48.67	0.055323
48.68	0.0921133
48.69	0.117331
48.7	0.171129
48.71	0.223771
48.72	0.275798
48.73	0.319476
48.74	0.332803
48.75	0.343767
48.76	0.313315
48.77	0.26161
48.78	0.199746
48.79	0.117643
48.8	0.0562788
48.81	-0.00478269
48.82	-0.045484
48.83	-0.0663674
48.84	-0.0848005
48.85	-0.0785425
48.86	-0.0860613
48.87	-0.0870458
48.88	-0.0849302
48.89	-0.0903968
48.9	-0.0723826
48.91	-0.0742907
48.92	-0.0746363
48.93	-0.0683726
48.94	-0.0752278
48.95	-0.068597
48.96	-0.0768151
48.97	-0.0797214
48.98	-0.0768544
48.99	-0.0874076
49	-0.0875988
49.01	-0.0971142
49.02	-0.0928869
49.03	-0.086139
49.04	-0.097733
49.05	-0.0920916
49.06	-0.10231
49.07	-0.106486
49.08	-0.103965
49.09	-0.117186
49.1	-0.108678
49.11	-0.10759
49.12	-0.105102
49.13	-0.105122
49.14	-0.115369
49.15	-0.100802
49.16	-0.0956455
49.17	-0.0800773
49.18	-0.0542736
49.19	-0.0398842
49.2	-0.0113573
49.21	-0.0104238
49.22	-0.0283266
49.23	-0.0598519
49.24	-0.102374
49.25	-0.112044
49.26	-0.125883
49.27	-0.127007
49.28	-0.121393
49.29	-0.138052
49.3	-0.131158
49.31	-6.6258e-05
49.32	0.380092
49.33	0.694514
49.34	0.531352
49.35	0.181646
49.36	-0.0223604
49.37	-0.0714984
49.38	-0.067835
49.39	-0.0736278
49.4	-0.0601585
49.41	-0.0600098
49.42	-0.0540823
49.43	-0.0416288
49.44	-0.0399114
49.45	-0.0171348
49.46	0.000601271
49.47	0.0243272
49.48	0.0524736
49.49	0.072425
49.5	0.115493
49.51	0.156351
49.52	0.204488
49.53	0.256342
49.54	0.285769
49.55	0.316228
49.56	0.315696
49.57	0.304189
49.58	0.278504
49.59	0.210884
49.6	0.145828
49.61	0.0717795
49.62	0.0147547
49.63	-0.021428
49.64	-0.0606697
49.65	-0.0730687
49.66	-0.0850574
49.67	-0.0792131
49.68	-0.0690578
49.69	-0.0749443
49.7	-0.0638606
49.71	-0.0668505
49.72	-0.0670496
49.73	-0.0635575
49.74	-0.0760577
49.75	-0.0697689
49.76	-0.0737042
49.77	-0.0751441
49.78	-0.0743707
49.79	-0.0849013
49.8	-0.0766166
49.81	-0.0801191
49.82	-0.0841182
49.83	-0.0880538
49.84	-0.101106
49.85	-0.0928743
49.86	-0.0969667
49.87	-0.0984119
49.88	-0.0955826
49.89	-0.104187
49.9	-0.0979197
49.91	-0.103782
49.92	-0.106063
49.93	-0.103118
49.94	-0.109614
49.95	-0.0990082
49.96	-0.104663
49.97	-0.0970803
49.98	-0.0681652
49.99	-0.0568038
50	-0.0365204
50.01	-0.0313647
50.02	-0.0248394
50.03	-0.0306271
50.04	-0.0748113
50.05	-0.106059
50.06	-0.132232
50.07	-0.138047
50.08	-0.130397
50.09	-0.137476
50.1	-0.144037
50.11	-0.132898
50.12	0.0766108
50.13	0.490169
50.14	0.67121
50.15	0.416031
50.16	0.0766018
50.17	-0.0683401
50.18	-0.0842897
50.19	-0.0873317
50.2	-0.0721925
50.21	-0.068701
50.22	-0.0600183
50.23	-0.0528519
50.24	-0.0578231
50.25	-0.0342201
50.26	-0.0194194
50.27	-0.000748389
50.28	0.023523
50.29	0.0398532
50.3	0.0817316
50.31	0.118454
50.32	0.159602
50.33	0.2076
50.34	0.242097
50.35	0.283848
50.36	0.299509
50.37	0.30387
50.38	0.29369
50.39	0.244146
50.4	0.191627
50.41	0.116212
50.42	0.0511377
50.43	0.00214969
50.44	-0.0474498
50.45	-0.065025
50.46	-0.0814853
50.47	-0.086674
50.48	-0.0820627
50.49	-0.087104
50.5	-0.0767137
50.51	-0.0785282
50.52	-0.0764901
50.53	-0.0689991
50.54	-0.0748441
50.55	-0.0709599
50.56	-0.08211
50.57	-0.0858126
50.58	-0.0815239
50.59	-0.0935167
50.6	-0.089979
50.61	-0.0926743
50.62	-0.0876666
50.63	-0.0822197
50.64	-0.0974314
50.65	-0.0961243
50.66	-0.101697
50.67	-0.104844
50.68	-0.103387
50.69	-0.109317
50.7	-0.099893
50.71	-0.105508
50.72	-0.106263
50.73	-0.101877
50.74	-0.10968
50.75	-0.0897808
50.76	-0.0751469
50.77	-0.0544552
50.78	-0.0291732
50.79	-0.02095
50.8	-0.00273162
50.81	-0.0220212
50.82	-0.0572267
50.83	-0.0861516
50.84	-0.116493
50.85	-0.115962
50.86	-0.123832
50.87	-0.12734
50.88	-0.131091
50.89	-0.120559
50.9	0.086332
50.91	0.486603
50.92	0.68435
50.93	0.438994
50.94	0.102619
50.95	-0.0411738
50.96	-0.0760905
50.97	-0.0736866
50.98	-0.0654043
50.99	-0.0680874
51	-0.0499758
51.01	-0.0424302
51.02	-0.0335991
51.03	-0.0147006
51.04	-0.00647555
51.05	0.0174379
51.06	0.0327199
51.07	0.055897
51.08	0.0940531
51.09	0.123364
51.1	0.175839
51.11	0.216773
51.12	0.258552
51.13	0.298429
51.14	0.305
51.15	0.313439
51.16	0.289898
51.17	0.242325
51.18	0.18439
51.19	0.110037
51.2	0.0597842
51.21	0.00373015
51.22	-0.0351244
51.23	-0.0532958
51.24	-0.0746166
51.25	-0.0736456
51.26	-0.0762475
51.27	-0.0776322
51.28	-0.0738692
51.29	-0.0767735
51.3	-0.0634534
51.31	-0.0691096
51.32	-0.0749882
51.33	-0.0739392
51.34	-0.0852925
51.35	-0.078205
51.36	-0.0836585
51.37	-0.0887898
51.38	-0.089882
51.39	-0.101236
51.4	-0.0938716
51.41	-0.0992713
51.42	-0.106048
51.43	-0.103795
51.44	-0.112351
51.45	-0.107361
51.46	-0.116704
51.47	-0.121713
51.48	-0.116347
51.49	-0.122001
51.5	-0.111314
51.51	-0.117375
51.52	-0.118226
51.53	-0.104727
51.54	-0.0981244
51.55	-0.0709681
51.56	-0.0582114
51.57	-0.0384688
51.58	-0.0194117
51.59	-0.0370986
51.6	-0.0601605
51.61	-0.10122
51.62	-0.128395
51.63	-0.13614
51.64	-0.146684
51.65	-0.140804
51.66	-0.15513
51.67	-0.158175
51.68	-0.0294828
51.69	0.329669
51.7	0.660695
51.71	0.524256
51.72	0.166892
51.73	-0.0337904
51.74	-0.0873215
51.75	-0.082112
51.76	-0.0897534
51.77	-0.0854922
51.78	-0.0728869
51.79	-0.0760367
51.8	-0.0574513
51.81	-0.0461628
51.82	-0.029553
51.83	-0.00486813
51.84	0.00772408
51.85	0.0381123
51.86	0.0611529
51.87	0.0940182
51.88	0.144728
51.89	0.181981
51.9	0.23188
51.91	0.26132
51.92	0.287541
51.93	0.305238
51.94	0.285515
51.95	0.263782
51.96	0.206874
51.97	0.141111
51.98	0.077497
51.99	0.00814176
52	-0.0261147
52.01	-0.0570561
52.02	-0.0702416
52.03	-0.0686361
52.04	-0.0744703
52.05	-0.0601654
52.06	-0.0652209
52.07	-0.065914
52.08	-0.0583024
52.09	-0.0678399
52.1	-0.0572915
52.11	-0.0617387
52.12	-0.0621369
52.13	-0.0576587
52.14	-0.0682191
52.15	-0.0632387
52.16	-0.0713077
52.17	-0.0733856
52.18	-0.0705969
52.19	-0.0830268
52.2	-0.0781467
52.21	-0.0800203
52.22	-0.0801015
52.23	-0.0804432
52.24	-0.0925879
52.25	-0.0838336
52.26	-0.092002
52.27	-0.0980328
52.28	-0.0917664
52.29	-0.0984249
52.3	-0.0808945
52.31	-0.0656009
52.32	-0.0477786
52.33	-0.0296471
52.34	-0.0239336
52.35	-3.77372e-05
52.36	-0.0137461
52.37	-0.0489129
52.38	-0.0793177
52.39	-0.107449
52.4	-0.102782
52.41	-0.107312
52.42	-0.113241
52.43	-0.122935
52.44	-0.124094
52.45	0.0522433
52.46	0.426698
52.47	0.667802
52.48	0.474083
52.49	0.12397
52.5	-0.0454168
52.51	-0.0830792
52.52	-0.081206
52.53	-0.0733415
52.54	-0.0795426
52.55	-0.0620854
52.56	-0.0521813
52.57	-0.0466435
52.58	-0.0334279
52.59	-0.030613
52.6	-0.0061692
52.61	0.0112044
52.62	0.0317439
52.63	0.0642088
52.64	0.0884418
52.65	0.134561
52.66	0.171821
52.67	0.20894
52.68	0.250377
52.69	0.267142
52.7	0.282012
52.71	0.263654
52.72	0.225179
52.73	0.172755
52.74	0.0983585
52.75	0.044149
52.76	-0.0157834
52.77	-0.0577503
52.78	-0.0783959
52.79	-0.102717
52.8	-0.0967715
52.81	-0.0945164
52.82	-0.0889465
52.83	-0.080653
52.84	-0.0890471
52.85	-0.081641
52.86	-0.0846866
52.87	-0.0858908
52.88	-0.0838063
52.89	-0.0933248
52.9	-0.102283
52.91	-0.106285
52.92	-0.10501
52.93	-0.0918828
52.94	-0.0993642
52.95	-0.0939913
52.96	-0.0946588
52.97	-0.102025
52.98	-0.10015
52.99	-0.10861
53	-0.0947563
53.01	-0.0821768
53.02	-0.0765972
53.03	-0.0594143
53.04	-0.0429883
53.05	-0.015953
53.06	-0.0208885
53.07	-0.0519799
53.08	-0.0774671
53.09	-0.112186
53.1	-0.121117
53.11	-0.127196
53.12	-0.131593
53.13	-0.123734
53.14	-0.136072
53.15	-0.0582618
53.16	0.225439
53.17	0.579111
53.18	0.60959
53.19	0.285021
53.2	0.0137722
53.21	-0.0855295
53.22	-0.089913
53.23	-0.0660732
53.24	-0.0725485
53.25	-0.0671071
53.26	-0.0585824
53.27	-0.0513678
53.28	-0.0305438
53.29	-0.0218948
53.3	0.00279238
53.31	0.0186312
53.32	0.0293275
53.33	0.0666184
53.34	0.0954191
53.35	0.139764
53.36	0.181031
53.37	0.222026
53.38	0.270101
53.39	0.282645
53.4	0.294681
53.41	0.280606
53.42	0.237408
53.43	0.190706
53.44	0.116092
53.45	0.0511614
53.46	-0.0076277
53.47	-0.049572
53.48	-0.0668765
53.49	-0.0937688
53.5	-0.09649
53.51	-0.101415
53.52	-0.106868
53.53	-0.0943627
53.54	-0.101777
53.55	-0.0914182
53.56	-0.088896
53.57	-0.0969666
53.58	-0.0915385
53.59	-0.100697
53.6	-0.0946008
53.61	-0.0935807
53.62	-0.0969041
53.63	-0.099181
53.64	-0.118517
53.65	-0.115654
53.66	-0.118791
53.67	-0.120293
53.68	-0.0967136
53.69	-0.0877395
53.7	-0.0668326
53.71	-0.0500888
53.72	-0.0452468
53.73	-0.0405818
53.74	-0.0703397
53.75	-0.100555
53.76	-0.129848
53.77	-0.146252
53.78	-0.139886
53.79	-0.149995
53.8	-0.146492
53.81	-0.153564
53.82	-0.105079
53.83	0.159226
53.84	0.522762
53.85	0.605793
53.86	0.300007
53.87	-0.00339652
53.88	-0.100999
53.89	-0.110358
53.9	-0.0928853
53.91	-0.0898585
53.92	-0.0889669
53.93	-0.0730074
53.94	-0.0728639
53.95	-0.0563138
53.96	-0.0438108
53.97	-0.0308547
53.98	0.0031435
53.99	0.022106
54	0.0523573
54.01	0.0774139
54.02	0.115938
54.03	0.176132
54.04	0.212579
54.05	0.253443
54.06	0.281233
54.07	0.290567
54.08	0.286636
54.09	0.238912
54.1	0.184384
54.11	0.109085
54.12	0.0340842
54.13	-0.0165209
54.14	-0.0706641
54.15	-0.0906402
54.16	-0.101691
54.17	-0.111676
54.18	-0.106431
54.19	-0.113056
54.2	-0.0988362
54.21	-0.093171
54.22	-0.096625
54.23	-0.0878627
54.24	-0.0956774
54.25	-0.0912647
54.26	-0.0888827
54.27	-0.0897839
54.28	-0.0834173
54.29	-0.0959862
54.3	-0.0940553
54.31	-0.0984206
54.32	-0.104298
54.33	-0.094913
54.34	-0.100849
54.35	-0.0829976
54.36	-0.0665809
54.37	-0.0567632
54.38	-0.0303626
54.39	-0.0251685
54.4	-0.0272922
54.41	-0.0581892
54.42	-0.101425
54.43	-0.113621
54.44	-0.126702
54.45	-0.127636
54.46	-0.129907
54.47	-0.134333
54.48	-0.135317
54.49	-0.0848459
54.5	0.199701
54.51	0.587873
54.52	0.645454
54.53	0.327256
54.54	0.0203637
54.55	-0.0714839
54.56	-0.0678421
54.57	-0.0668074
54.58	-0.0553082
54.59	-0.0535472
54.6	-0.0333112
54.61	-0.0188458
54.62	-0.00951753
54.63	0.0124267
54.64	0.022236
54.65	0.0463438
54.66	0.0690004
54.67	0.0953011
54.68	0.144106
54.69	0.185909
54.7	0.245239
54.71	0.302554
54.72	0.345094
54.73	0.382124
54.74	0.388489
54.75	0.387144
54.76	0.349683
54.77	0.279687
54.78	0.212989
54.79	0.135017
54.8	0.0853085
54.81	0.053678
54.82	0.0319669
54.83	0.0259196
54.84	0.014149
54.85	0.0225252
54.86	0.0147129
54.87	-0.000369928
54.88	0.000321235
54.89	-0.015033
54.9	-0.0164058
54.91	-0.0289112
54.92	-0.0517823
54.93	-0.0582842
54.94	-0.0776218
54.95	-0.0843111
54.96	-0.0938437
54.97	-0.103559
54.98	-0.0990492
54.99	-0.107715
55	-0.0995192
55.01	-0.100071
55.02	-0.107337
55.03	-0.100606
55.04	-0.104684
55.05	-0.0861742
55.06	-0.0691331
55.07	-0.0591138
55.08	-0.044877
55.09	-0.0683368
55.1	-0.0958957
55.11	-0.128148
55.12	-0.157524
55.13	-0.163302
55.14	-0.178148
55.15	-0.178739
55.16	-0.192047
55.17	-0.208517
55.18	-0.103462
55.19	0.219914
55.2	0.579701
55.21	0.522488
55.22	0.157871
55.23	-0.0868758
55.24	-0.165663
55.25	-0.156779
55.26	-0.146606
55.27	-0.14521
55.28	-0.128011
55.29	-0.122878
55.3	-0.100964
55.31	-0.0853606
55.32	-0.0695912
55.33	-0.0360209
55.34	-0.0186839
55.35	0.011856
55.36	0.0398443
55.37	0.0706835
55.38	0.127962
55.39	0.170437
55.4	0.212713
55.41	0.242423
55.42	0.258876
55.43	0.263485
55.44	0.221108
55.45	0.169419
55.46	0.0956028
55.47	0.00776032
55.48	-0.0585747
55.49	-0.117401
55.5	-0.147041
55.51	-0.172855
55.52	-0.19792
55.53	-0.198492
55.54	-0.209375
55.55	-0.20309
55.56	-0.197962
55.57	-0.19896
55.58	-0.184315
55.59	-0.179473
55.6	-0.159903
55.61	-0.146563
55.62	-0.142295
55.63	-0.12494
55.64	-0.126746
55.65	-0.11774
55.66	-0.110701
55.67	-0.113426
55.68	-0.102429
55.69	-0.108384
55.7	-0.1031
55.71	-0.103664
55.72	-0.112355
55.73	-0.100388
55.74	-0.103221
55.75	-0.0933245
55.76	-0.0919387
55.77	-0.0969553
55.78	-0.0834956
55.79	-0.0835686
55.8	-0.0633798
55.81	-0.0427004
55.82	-0.0275095
55.83	-0.0051682
55.84	-0.00838057
55.85	-0.0184457
55.86	-0.0523432
55.87	-0.0896193
55.88	-0.100373
55.89	-0.118408
55.9	-0.117603
55.91	-0.121828
55.92	-0.139994
55.93	-0.139403
55.94	-0.0468326
55.95	0.291559
55.96	0.649998
55.97	0.580599
55.98	0.223175
55.99	-0.0366882
56	-0.100334
56.01	-0.0999912
56.02	-0.0971798
56.03	-0.0762631
56.04	-0.0724485
56.05	-0.0629319
56.06	-0.0590599
56.07	-0.0502767
56.08	-0.026287
56.09	-0.02153
56.1	0.00501716
56.11	0.0367023
56.12	0.0652357
56.13	0.117666
56.14	0.159014
56.15	0.211277
56.16	0.261627
56.17	0.300758
56.18	0.339282
56.19	0.339356
56.2	0.327075
56.21	0.287149
56.22	0.219508
56.23	0.148806
56.24	0.0657256
56.25	0.0112101
56.26	-0.025011
56.27	-0.0554443
56.28	-0.0631653
56.29	-0.0775672
56.3	-0.0737043
56.31	-0.0704639
56.32	-0.0758951
56.33	-0.0614975
56.34	-0.0615646
56.35	-0.0557598
56.36	-0.0558797
56.37	-0.0584318
56.38	-0.0503923
56.39	-0.0627626
56.4	-0.0592513
56.41	-0.0556744
56.42	-0.0671965
56.43	-0.0674568
56.44	-0.0748869
56.45	-0.0724813
56.46	-0.0772545
56.47	-0.0835779
56.48	-0.0751348
56.49	-0.0839273
56.5	-0.0815379
56.51	-0.0790355
56.52	-0.0880767
56.53	-0.0908322
56.54	-0.10169
56.55	-0.0892051
56.56	-0.081316
56.57	-0.0841517
56.58	-0.0721201
56.59	-0.0711441
56.6	-0.053969
56.61	-0.0361013
56.62	-0.0311751
56.63	-0.0133987
56.64	-0.0122755
56.65	-0.0167174
56.66	-0.0413361
56.67	-0.0808486
56.68	-0.0924685
56.69	-0.110573
56.7	-0.11063
56.71	-0.110383
56.72	-0.124495
56.73	-0.130267
56.74	-0.0707058
56.75	0.230737
56.76	0.634158
56.77	0.668048
56.78	0.333518
56.79	0.0340852
56.8	-0.0632535
56.81	-0.069236
56.82	-0.0682098
56.83	-0.0576853
56.84	-0.0594662
56.85	-0.0442633
56.86	-0.0335519
56.87	-0.0313747
56.88	-0.00794459
56.89	-0.00281241
56.9	0.0146042
56.91	0.0406074
56.92	0.0655443
56.93	0.1089
56.94	0.148801
56.95	0.206406
56.96	0.261835
56.97	0.301891
56.98	0.340092
56.99	0.345327
57	0.341928
57.01	0.307924
57.02	0.240044
57.03	0.176333
57.04	0.0908438
57.05	0.0254263
57.06	-0.0151202
57.07	-0.0468171
57.08	-0.0567619
57.09	-0.0771183
57.1	-0.0793321
57.11	-0.0808766
57.12	-0.08799
57.13	-0.0760473
57.14	-0.079968
57.15	-0.0732788
57.16	-0.070739
57.17	-0.0745445
57.18	-0.0574867
57.19	-0.0614158
57.2	-0.0647812
57.21	-0.0685466
57.22	-0.0757633
57.23	-0.0676573
57.24	-0.0808525
57.25	-0.0795632
57.26	-0.0743153
57.27	-0.0747845
57.28	-0.0641259
57.29	-0.0747079
57.3	-0.074626
57.31	-0.0773382
57.32	-0.0858565
57.33	-0.0727852
57.34	-0.0823513
57.35	-0.0830986
57.36	-0.0803013
57.37	-0.0880853
57.38	-0.0793163
57.39	-0.0856491
57.4	-0.0860532
57.41	-0.0901173
57.42	-0.0981271
57.43	-0.0804996
57.44	-0.0725368
57.45	-0.0530872
57.46	-0.027414
57.47	-0.0174491
57.48	-0.00650156
57.49	-0.0268715
57.5	-0.0524522
57.51	-0.0836697
57.52	-0.111909
57.53	-0.115639
57.54	-0.129398
57.55	-0.122905
57.56	-0.123549
57.57	-0.133668
57.58	-0.0249359
57.59	0.302627
57.6	0.662559
57.61	0.595947
57.62	0.228303
57.63	-0.00907745
57.64	-0.0831344
57.65	-0.0779573
57.66	-0.072773
57.67	-0.0757938
57.68	-0.060504
57.69	-0.0620614
57.7	-0.0489944
57.71	-0.032934
57.72	-0.0238829
57.73	0.00225712
57.74	0.0147617
57.75	0.041469
57.76	0.0744811
57.77	0.105729
57.78	0.158437
57.79	0.199152
57.8	0.249949
57.81	0.294317
57.82	0.323055
57.83	0.349503
57.84	0.327026
57.85	0.287101
57.86	0.232797
57.87	0.158311
57.88	0.0897827
57.89	0.0198765
57.9	-0.0199169
57.91	-0.0460699
57.92	-0.0660544
57.93	-0.0644341
57.94	-0.0796968
57.95	-0.07928
57.96	-0.072184
57.97	-0.0742131
57.98	-0.0619632
57.99	-0.0644068
58	-0.0587896
58.01	-0.0545495
58.02	-0.0596246
58.03	-0.0532567
58.04	-0.0622068
58.05	-0.0607829
58.06	-0.0644306
58.07	-0.0808912
58.08	-0.0770638
58.09	-0.0889574
58.1	-0.0879338
58.11	-0.088303
58.12	-0.102406
58.13	-0.0976422
58.14	-0.109754
58.15	-0.11354
58.16	-0.120995
58.17	-0.130604
58.18	-0.120066
58.19	-0.125923
58.2	-0.126839
58.21	-0.127925
58.22	-0.13344
58.23	-0.125127
58.24	-0.135884
58.25	-0.129915
58.26	-0.116198
58.27	-0.107344
58.28	-0.0790491
58.29	-0.0675358
58.3	-0.04558
58.31	-0.0236418
58.32	-0.0243046
58.33	-0.0338702
58.34	-0.0774602
58.35	-0.0979427
58.36	-0.104037
58.37	-0.114131
58.38	-0.109877
58.39	-0.119227
58.4	-0.12451
58.41	-0.124435
58.42	0.00160102
58.43	0.382542
58.44	0.683937
58.45	0.540399
58.46	0.184127
58.47	-0.0301182
58.48	-0.0694806
58.49	-0.0726565
58.5	-0.0600602
58.51	-0.0534121
58.52	-0.055391
58.53	-0.0390475
58.54	-0.0368588
58.55	-0.0230369
58.56	-0.00687189
58.57	0.00453226
58.58	0.0323104
58.59	0.0490253
58.6	0.083086
58.61	0.126757
58.62	0.167573
58.63	0.226698
58.64	0.265524
58.65	0.301824
58.66	0.324345
58.67	0.318431
58.68	0.305855
58.69	0.253984
58.7	0.192577
58.71	0.12065
58.72	0.0352425
58.73	-0.0181264
58.74	-0.0700094
58.75	-0.0977704
58.76	-0.113188
58.77	-0.126725
58.78	-0.12153
58.79	-0.127616
58.8	-0.116149
58.81	-0.108527
58.82	-0.104268
58.83	-0.0808393
58.84	-0.0822493
58.85	-0.080181
58.86	-0.0785358
58.87	-0.0831955
58.88	-0.0687956
58.89	-0.0614119
58.9	-0.0693374
58.91	-0.0764972
58.92	-0.0913219
58.93	-0.0876982
58.94	-0.0954722
58.95	-0.0982402
58.96	-0.0923231
58.97	-0.102145
58.98	-0.094106
58.99	-0.100568
59	-0.102138
59.01	-0.100328
59.02	-0.116222
59.03	-0.109901
59.04	-0.110885
59.05	-0.106751
59.06	-0.0984094
59.07	-0.104728
59.08	-0.0919124
59.09	-0.0830068
59.1	-0.0655884
59.11	-0.0460032
59.12	-0.0473762
59.13	-0.0442915
59.14	-0.0662692
59.15	-0.0959834
59.16	-0.113615
59.17	-0.134619
59.18	-0.130927
59.19	-0.136445
59.2	-0.136684
59.21	-0.13871
59.22	-0.123587
59.23	0.0996138
59.24	0.491498
59.25	0.657485
59.26	0.403947
59.27	0.0779354
59.28	-0.0508221
59.29	-0.0705685
59.3	-0.0614878
59.31	-0.0526472
59.32	-0.0608268
59.33	-0.0443308
59.34	-0.0338783
59.35	-0.0205783
59.36	-0.00234718
59.37	0.00564651
59.38	0.0311257
59.39	0.0445716
59.4	0.0721839
59.41	0.109624
59.42	0.137894
59.43	0.193049
59.44	0.236918
59.45	0.2775
59.46	0.318989
59.47	0.333332
59.48	0.344401
59.49	0.31338
59.5	0.258015
59.51	0.194065
59.52	0.110102
59.53	0.0535446
59.54	-0.0017862
59.55	-0.0404555
59.56	-0.0548337
59.57	-0.0793825
59.58	-0.0826796
59.59	-0.086053
59.6	-0.0864633
59.61	-0.081998
59.62	-0.0871801
59.63	-0.0692022
59.64	-0.0658114
59.65	-0.067056
59.66	-0.0663485
59.67	-0.0793627
59.68	-0.072868
59.69	-0.075288
59.7	-0.0756796
59.71	-0.0741434
59.72	-0.0841976
59.73	-0.0740538
59.74	-0.077837
59.75	-0.0789776
59.76	-0.0747488
59.77	-0.0895176
59.78	-0.0808613
59.79	-0.0764411
59.8	-0.0704275
59.81	-0.0590269
59.82	-0.0470663
59.83	-0.0186155
59.84	-0.00984232
59.85	-0.0105286
59.86	-0.0194762
59.87	-0.0644627
59.88	-0.0898237
59.89	-0.1099
59.9	-0.12935
59.91	-0.136046
59.92	-0.146059
59.93	-0.143919
59.94	-0.156678
59.95	-0.075115
59.96	0.243124
59.97	0.592403
59.98	0.574832
59.99	0.223119
60	-0.0440838
60.01	-0.117959
60.02	-0.123002
60.03	-0.0997508
60.04	-0.0938799
60.05	-0.0842305
60.06	-0.0660073
60.07	-0.0605673
60.08	-0.038561
60.09	-0.032457
60.1	-0.0184459
60.11	0.00750895
60.12	0.0231515
60.13	0.0627113
60.14	0.0957337
60.15	0.137283
60.16	0.189922
60.17	0.230459
60.18	0.277625
60.19	0.297946
60.2	0.305579
60.21	0.294581
60.22	0.247729
60.23	0.198102
60.24	0.11942
60.25	0.0415479
60.26	-0.0112876
60.27	-0.0627354
60.28	-0.0879149
60.29	-0.111437
60.3	-0.119191
60.31	-0.112066
60.32	-0.121029
60.33	-0.110543
60.34	-0.106735
60.35	-0.0983182
60.36	-0.0877201
60.37	-0.094306
60.38	-0.0779687
60.39	-0.0765367
60.4	-0.0747185
60.41	-0.0684965
60.42	-0.0877518
60.43	-0.0830393
60.44	-0.0871553
60.45	-0.0931057
60.46	-0.0847847
60.47	-0.0946728
60.48	-0.0938134
60.49	-0.0994773
60.5	-0.10136
60.51	-0.0927322
60.52	-0.10042
60.53	-0.082081
60.54	-0.0610784
60.55	-0.0351811
60.56	-0.0111055
60.57	-0.00986994
60.58	-0.00793346
60.59	-0.0453722
60.6	-0.084762
60.61	-0.0972397
60.62	-0.112361
60.63	-0.10801
60.64	-0.117248
60.65	-0.128989
60.66	-0.118972
60.67	-0.00827683
60.68	0.347272
60.69	0.654251
60.7	0.536051
60.71	0.182478
60.72	-0.0540251
